0  0
1  0
2  0
3  0
4  0
5  0
6  0
7  0
8  0
9  0
10  0
11  0
12  0
13  0
14  0
15  0
16  0
17  0
18  0
19  0
20  0
21  0
22  0
23  0
24  0
25  0
26  0
27  0
28  0
29  0
30  0
31  0
32  0
33  0
34  0
35  0
36  0
37  0
38  0
39  0
40  0
41  0
42  0
43  0
44  0
45  5
46  13
47  10
48  6
49  9
50  11
51  8
52  2
53  10
54  5
55  6
56  7
57  2
58  9
59  8
60  4
61  4
62  8
63  9
64  8
65  6
66  5
67  9
68  4
69  5
70  3
71  7
72  2
73  6
74  5
75  8
76  6
77  9
78  12
79  9
80  5
81  3
82  4
83  5
84  6
85  6
86  8
87  3
88  4
89  6
90  4
91  3
92  2
93  6
94  2
95  5
96  5
97  4
98  3
99  2
100  1
101  4
102  2
103  3
104  3
105  7
106  2
107  3
108  3
109  4
110  4
111  6
112  1
113  4
114  3
115  1
116  5
117  5
118  3
119  5
120  1
121  2
122  5
123  2
124  5
125  4
126  6
127  3
128  2
129  4
130  1
131  3
132  3
133  2
134  3
135  4
136  2
137  5
138  2
139  3
140  3
141  3
142  2
143  2
144  4
145  4
146  5
147  5
148  6
149  2
150  0
151  5
152  3
153  4
154  5
155  3
156  2
157  6
158  4
159  1
160  1
161  0
162  4
163  1
164  3
165  1
166  2
167  6
168  1
169  1
170  3
171  5
172  5
173  1
174  3
175  3
176  3
177  5
178  4
179  0
180  1
181  5
182  4
183  2
184  5
185  2
186  4
187  3
188  0
189  4
190  4
191  2
192  5
193  3
194  1
195  3
196  5
197  3
198  4
199  5
200  3
201  5
202  4
203  1
204  4
205  0
206  3
207  5
208  2
209  3
210  4
211  2
212  1
213  5
214  0
215  3
216  5
217  5
218  8
219  4
220  2
221  3
222  6
223  2
224  6
225  2
226  8
227  7
228  8
229  11
230  17
231  19
232  24
233  25
234  34
235  35
236  29
237  19
238  16
239  10
240  2
241  2
242  8
243  13
244  14
245  32
246  61
247  46
248  13
249  2
250  1
251  3
252  0
253  1
254  3
255  0
256  3
257  0
258  2
259  4
260  3
261  2
262  1
263  0
264  0
265  2
266  5
267  1
268  2
269  2
270  2
271  1
272  1
273  0
274  4
275  4
276  2
277  4
278  4
279  0
280  0
281  1
282  0
283  6
284  2
285  6
286  3
287  3
288  2
289  3
290  1
291  3
292  4
293  4
294  2
295  4
296  4
297  1
298  0
299  4
300  2
301  3
302  0
303  3
304  2
305  6
306  3
307  2
308  5
309  3
310  5
311  2
312  3
313  2
314  3
315  0
316  2
317  0
318  6
319  6
320  2
321  3
322  4
323  4
324  4
325  6
326  2
327  2
328  2
329  3
330  3
331  7
332  4
333  3
334  5
335  5
336  7
337  6
338  6
339  10
340  7
341  7
342  9
343  9
344  11
345  13
346  9
347  20
348  15
349  15
350  13
351  7
352  4
353  5
354  8
355  12
356  9
357  14
358  15
359  22
360  10
361  3
362  2
363  3
364  0
365  0
366  1
367  1
368  0
369  0
370  1
371  2
372  2
373  2
374  1
375  1
376  0
377  1
378  1
379  2
380  0
381  1
382  0
383  2
384  3
385  1
386  1
387  1
388  0
389  1
390  1
391  2
392  2
393  1
394  0
395  1
396  0
397  2
398  1
399  0
400  2
401  1
402  2
403  3
404  0
405  2
406  1
407  0
408  2
409  1
410  1
411  2
412  0
413  0
414  1
415  2
416  0
417  0
418  1
419  0
420  1
421  0
422  2
423  1
424  2
425  1
426  2
427  1
428  0
429  2
430  5
431  0
432  2
433  0
434  0
435  2
436  3
437  0
438  1
439  0
440  0
441  0
442  1
443  1
444  2
445  0
446  1
447  1
448  2
449  0
450  0
451  1
452  0
453  0
454  0
455  0
456  0
457  0
458  0
459  1
460  1
461  2
462  1
463  0
464  3
465  2
466  3
467  1
468  0
469  2
470  0
471  0
472  4
473  0
474  0
475  1
476  0
477  2
478  0
479  0
480  0
481  1
482  0
483  2
484  1
485  2
486  0
487  0
488  0
489  1
490  1
491  2
492  1
493  1
494  0
495  3
496  1
497  1
498  0
499  0
500  1
501  0
502  1
503  0
504  3
505  3
506  0
507  0
508  0
509  0
510  1
511  0
512  2
513  0
514  0
515  0
516  1
517  0
518  2
519  1
520  0
521  0
522  0
523  1
524  0
525  1
526  1
527  1
528  1
529  0
530  1
531  1
532  1
533  1
534  0
535  2
536  3
537  1
538  0
539  0
540  2
541  0
542  1
543  1
544  1
545  1
546  1
547  0
548  0
549  1
550  2
551  0
552  1
553  2
554  4
555  2
556  2
557  1
558  0
559  3
560  2
561  0
562  0
563  5
564  2
565  0
566  0
567  2
568  0
569  1
570  0
571  2
572  0
573  0
574  2
575  1
576  0
577  1
578  1
579  1
580  0
581  2
582  1
583  0
584  1
585  2
586  0
587  0
588  1
589  1
590  0
591  0
592  0
593  0
594  1
595  2
596  0
597  1
598  0
599  0
600  1
601  2
602  1
603  0
604  1
605  1
606  2
607  0
608  0
609  0
610  1
611  1
612  1
613  0
614  1
615  1
616  1
617  2
618  1
619  0
620  0
621  1
622  0
623  0
624  1
625  1
626  0
627  0
628  1
629  1
630  0
631  1
632  1
633  1
634  1
635  0
636  0
637  0
638  0
639  2
640  0
641  2
642  0
643  1
644  0
645  1
646  0
647  1
648  0
649  1
650  0
651  1
652  0
653  1
654  0
655  2
656  1
657  0
658  0
659  0
660  4
661  0
662  0
663  0
664  0
665  0
666  0
667  0
668  2
669  0
670  2
671  4
672  0
673  1
674  0
675  1
676  1
677  0
678  2
679  0
680  1
681  0
682  0
683  1
684  0
685  0
686  0
687  0
688  1
689  1
690  1
691  3
692  1
693  0
694  0
695  0
696  0
697  0
698  0
699  1
700  2
701  0
702  1
703  1
704  0
705  0
706  1
707  0
708  0
709  1
710  2
711  0
712  1
713  1
714  0
715  0
716  3
717  1
718  1
719  1
720  1
721  1
722  1
723  1
724  1
725  0
726  0
727  1
728  2
729  0
730  3
731  1
732  1
733  0
734  3
735  1
736  0
737  0
738  3
739  0
740  3
741  0
742  1
743  0
744  2
745  2
746  3
747  1
748  0
749  1
750  2
751  1
752  3
753  0
754  0
755  0
756  0
757  1
758  1
759  2
760  0
761  2
762  2
763  0
764  1
765  2
766  1
767  0
768  2
769  4
770  1
771  1
772  1
773  2
774  5
775  1
776  5
777  3
778  1
779  2
780  3
781  2
782  2
783  3
784  2
785  2
786  2
787  3
788  1
789  2
790  0
791  0
792  0
793  1
794  0
795  1
796  0
797  1
798  0
799  0
800  1
801  0
802  0
803  0
804  2
805  1
806  0
807  0
808  0
809  0
810  0
811  0
812  0
813  1
814  0
815  1
816  1
817  0
818  1
819  0
820  0
821  0
822  0
823  0
824  1
825  0
826  1
827  0
828  0
829  0
830  1
831  0
832  0
833  0
834  0
835  0
836  2
837  0
838  0
839  0
840  2
841  1
842  0
843  3
844  0
845  1
846  1
847  1
848  1
849  4
850  4
851  2
852  5
853  12
854  4
855  10
856  11
857  14
858  21
859  23
860  13
861  21
862  16
863  18
864  14
865  12
866  7
867  3
868  1
869  1
870  0
871  1
872  3
873  0
874  1
875  1
876  2
877  2
878  1
879  1
880  1
881  2
882  2
883  3
884  2
885  1
886  4
887  0
888  0
889  2
890  5
891  3
892  6
893  5
894  2
895  1
896  5
897  8
898  9
899  6
900  7
901  10
902  15
903  20
904  26
905  15
906  14
907  16
908  26
909  30
910  40
911  55
912  91
913  121
914  212
915  253
916  327
917  356
918  399
919  428
920  419
921  418
922  395
923  358
924  319
925  225
926  89
927  39
928  3
929  2
930  0
931  0
932  0
933  0
934  0
935  0
936  0
937  0
938  0
939  0
940  0
941  0
942  0
943  0
944  0
945  0
946  0
947  0
948  0
949  0
950  0
951  0
952  0
953  0
954  0
955  0
956  0
957  0
958  0
959  0
960  0
961  0
962  0
963  0
964  0
965  0
966  0
967  0
968  0
969  0
970  0
971  0
972  0
973  0
974  0
975  0
976  0
977  0
978  0
979  0
980  0
981  0
982  0
983  0
984  0
985  0
986  0
987  0
988  0
989  0
990  0
991  0
992  0
993  0
994  0
995  0
996  0
997  0
998  0
999  0
1000  0
1001  0
1002  0
1003  0
1004  0
1005  0
1006  0
1007  0
1008  0
1009  0
1010  0
1011  0
1012  0
1013  0
1014  0
1015  0
1016  0
1017  0
1018  0
1019  0
1020  0
1021  0
1022  0
1023  0
