0  0
1  0
2  0
3  0
4  0
5  0
6  0
7  0
8  0
9  0
10  0
11  0
12  0
13  0
14  0
15  0
16  0
17  0
18  0
19  0
20  0
21  0
22  0
23  0
24  0
25  0
26  0
27  0
28  0
29  0
30  0
31  0
32  0
33  0
34  0
35  0
36  0
37  0
38  0
39  0
40  0
41  0
42  0
43  0
44  0
45  6
46  5
47  6
48  9
49  6
50  6
51  4
52  8
53  6
54  7
55  6
56  8
57  9
58  7
59  8
60  4
61  4
62  5
63  3
64  9
65  8
66  2
67  3
68  4
69  5
70  2
71  2
72  2
73  5
74  3
75  4
76  1
77  6
78  6
79  3
80  8
81  2
82  4
83  0
84  2
85  3
86  2
87  3
88  4
89  5
90  5
91  2
92  2
93  4
94  6
95  1
96  5
97  1
98  5
99  6
100  5
101  5
102  5
103  2
104  4
105  5
106  5
107  2
108  2
109  2
110  1
111  4
112  2
113  1
114  1
115  1
116  1
117  4
118  3
119  1
120  7
121  1
122  1
123  3
124  3
125  2
126  1
127  4
128  4
129  3
130  2
131  2
132  3
133  2
134  1
135  1
136  2
137  2
138  2
139  2
140  1
141  1
142  1
143  4
144  0
145  1
146  6
147  2
148  1
149  3
150  2
151  0
152  4
153  0
154  2
155  1
156  3
157  1
158  3
159  1
160  1
161  1
162  4
163  3
164  0
165  2
166  1
167  1
168  2
169  1
170  1
171  3
172  1
173  3
174  0
175  1
176  1
177  2
178  2
179  2
180  3
181  2
182  7
183  3
184  2
185  2
186  3
187  3
188  4
189  5
190  2
191  2
192  4
193  1
194  3
195  3
196  1
197  1
198  1
199  1
200  4
201  2
202  1
203  3
204  1
205  3
206  2
207  3
208  3
209  1
210  2
211  3
212  2
213  2
214  1
215  5
216  5
217  3
218  5
219  2
220  3
221  1
222  2
223  1
224  3
225  2
226  4
227  9
228  4
229  8
230  8
231  15
232  18
233  23
234  21
235  18
236  12
237  12
238  7
239  4
240  6
241  2
242  4
243  8
244  17
245  39
246  31
247  27
248  9
249  1
250  2
251  1
252  1
253  1
254  2
255  3
256  0
257  1
258  1
259  4
260  1
261  1
262  1
263  0
264  2
265  1
266  0
267  0
268  1
269  1
270  0
271  3
272  2
273  0
274  0
275  0
276  3
277  0
278  3
279  2
280  3
281  1
282  1
283  1
284  1
285  1
286  1
287  3
288  0
289  1
290  1
291  1
292  0
293  0
294  2
295  1
296  1
297  3
298  2
299  2
300  0
301  0
302  2
303  0
304  1
305  0
306  5
307  1
308  3
309  4
310  1
311  3
312  0
313  1
314  2
315  1
316  3
317  2
318  2
319  0
320  0
321  3
322  1
323  7
324  2
325  2
326  5
327  3
328  2
329  1
330  4
331  3
332  2
333  2
334  4
335  4
336  5
337  1
338  7
339  3
340  7
341  9
342  5
343  2
344  9
345  7
346  12
347  16
348  7
349  5
350  5
351  4
352  4
353  1
354  6
355  5
356  5
357  10
358  10
359  12
360  7
361  0
362  0
363  0
364  1
365  0
366  0
367  2
368  1
369  0
370  2
371  2
372  1
373  0
374  0
375  0
376  1
377  1
378  1
379  4
380  1
381  0
382  1
383  0
384  0
385  1
386  0
387  0
388  0
389  4
390  1
391  0
392  0
393  0
394  0
395  1
396  2
397  1
398  1
399  0
400  0
401  3
402  1
403  1
404  0
405  0
406  1
407  1
408  0
409  0
410  1
411  1
412  1
413  1
414  3
415  0
416  1
417  2
418  0
419  0
420  0
421  1
422  0
423  1
424  0
425  0
426  1
427  3
428  0
429  3
430  0
431  0
432  0
433  3
434  2
435  0
436  0
437  3
438  0
439  0
440  0
441  1
442  0
443  0
444  3
445  2
446  1
447  0
448  0
449  1
450  2
451  0
452  0
453  0
454  1
455  1
456  0
457  0
458  0
459  1
460  0
461  1
462  0
463  0
464  1
465  1
466  0
467  0
468  0
469  0
470  0
471  0
472  0
473  1
474  0
475  2
476  0
477  0
478  1
479  0
480  0
481  0
482  1
483  0
484  1
485  0
486  0
487  0
488  1
489  0
490  0
491  1
492  1
493  1
494  1
495  0
496  0
497  1
498  2
499  1
500  2
501  1
502  0
503  2
504  3
505  1
506  0
507  0
508  0
509  0
510  0
511  1
512  0
513  1
514  0
515  0
516  1
517  1
518  0
519  1
520  0
521  2
522  0
523  0
524  0
525  0
526  0
527  0
528  0
529  0
530  0
531  0
532  0
533  0
534  1
535  1
536  1
537  1
538  0
539  1
540  0
541  0
542  0
543  1
544  0
545  2
546  1
547  1
548  3
549  0
550  1
551  2
552  2
553  0
554  0
555  0
556  0
557  0
558  0
559  0
560  1
561  0
562  1
563  0
564  1
565  0
566  0
567  0
568  2
569  0
570  0
571  0
572  0
573  2
574  0
575  2
576  0
577  1
578  0
579  0
580  0
581  3
582  0
583  2
584  3
585  0
586  1
587  0
588  1
589  0
590  0
591  1
592  1
593  1
594  0
595  0
596  1
597  0
598  0
599  0
600  2
601  0
602  1
603  1
604  0
605  1
606  0
607  0
608  0
609  0
610  1
611  0
612  2
613  1
614  2
615  0
616  1
617  1
618  2
619  1
620  0
621  1
622  0
623  1
624  1
625  0
626  1
627  1
628  0
629  1
630  1
631  1
632  0
633  0
634  2
635  1
636  0
637  0
638  1
639  1
640  0
641  0
642  0
643  1
644  0
645  2
646  0
647  0
648  1
649  1
650  1
651  1
652  0
653  0
654  0
655  0
656  1
657  0
658  0
659  0
660  0
661  0
662  2
663  0
664  0
665  2
666  0
667  0
668  0
669  0
670  0
671  2
672  0
673  0
674  0
675  0
676  0
677  0
678  1
679  0
680  0
681  1
682  0
683  0
684  2
685  0
686  0
687  0
688  0
689  0
690  0
691  1
692  1
693  1
694  1
695  0
696  0
697  0
698  0
699  0
700  1
701  2
702  1
703  0
704  0
705  0
706  0
707  0
708  1
709  0
710  0
711  1
712  2
713  1
714  0
715  0
716  1
717  0
718  1
719  0
720  0
721  0
722  0
723  0
724  0
725  1
726  1
727  2
728  1
729  1
730  1
731  0
732  1
733  0
734  1
735  1
736  0
737  0
738  0
739  1
740  1
741  0
742  0
743  3
744  2
745  0
746  0
747  0
748  1
749  2
750  0
751  0
752  0
753  0
754  1
755  0
756  1
757  1
758  1
759  0
760  0
761  1
762  0
763  0
764  0
765  0
766  1
767  2
768  1
769  3
770  1
771  4
772  2
773  1
774  0
775  2
776  2
777  1
778  1
779  2
780  2
781  1
782  1
783  0
784  0
785  0
786  2
787  1
788  1
789  0
790  0
791  2
792  1
793  1
794  0
795  0
796  0
797  0
798  1
799  0
800  0
801  0
802  0
803  1
804  0
805  2
806  1
807  0
808  0
809  0
810  0
811  0
812  0
813  1
814  1
815  1
816  0
817  1
818  0
819  0
820  0
821  0
822  0
823  1
824  0
825  0
826  0
827  0
828  0
829  1
830  0
831  0
832  0
833  0
834  0
835  0
836  0
837  1
838  1
839  1
840  0
841  0
842  1
843  0
844  2
845  0
846  0
847  1
848  2
849  1
850  3
851  3
852  8
853  7
854  8
855  5
856  8
857  11
858  11
859  13
860  12
861  9
862  13
863  10
864  10
865  6
866  7
867  3
868  2
869  0
870  1
871  1
872  0
873  0
874  0
875  0
876  1
877  2
878  1
879  2
880  1
881  0
882  1
883  1
884  1
885  1
886  1
887  0
888  1
889  0
890  0
891  0
892  0
893  2
894  5
895  4
896  4
897  5
898  8
899  3
900  4
901  7
902  10
903  8
904  10
905  14
906  14
907  15
908  18
909  22
910  40
911  56
912  88
913  124
914  166
915  195
916  261
917  274
918  271
919  266
920  306
921  284
922  297
923  271
924  206
925  124
926  70
927  20
928  5
929  1
930  0
931  0
932  0
933  0
934  0
935  0
936  0
937  0
938  0
939  0
940  0
941  0
942  0
943  0
944  0
945  0
946  0
947  0
948  0
949  0
950  0
951  0
952  0
953  0
954  0
955  0
956  0
957  0
958  0
959  0
960  0
961  0
962  0
963  0
964  0
965  0
966  0
967  0
968  0
969  0
970  0
971  0
972  0
973  0
974  0
975  0
976  0
977  0
978  0
979  0
980  0
981  0
982  0
983  0
984  0
985  0
986  0
987  0
988  0
989  0
990  0
991  0
992  0
993  0
994  0
995  0
996  0
997  0
998  0
999  0
1000  0
1001  0
1002  0
1003  0
1004  0
1005  0
1006  0
1007  0
1008  0
1009  0
1010  0
1011  0
1012  0
1013  0
1014  0
1015  0
1016  0
1017  0
1018  0
1019  0
1020  0
1021  0
1022  0
1023  0
