0  0
1  0
2  0
3  0
4  0
5  0
6  0
7  0
8  0
9  0
10  0
11  0
12  0
13  0
14  0
15  0
16  0
17  0
18  0
19  0
20  0
21  0
22  0
23  0
24  0
25  0
26  0
27  0
28  0
29  0
30  0
31  0
32  0
33  0
34  0
35  0
36  0
37  0
38  0
39  0
40  0
41  0
42  0
43  0
44  0
45  0
46  0
47  0
48  0
49  0
50  0
51  0
52  0
53  0
54  0
55  0
56  0
57  0
58  0
59  0
60  0
61  0
62  0
63  0
64  0
65  0
66  0
67  0
68  0
69  0
70  0
71  0
72  0
73  0
74  0
75  0
76  0
77  0
78  0
79  0
80  0
81  0
82  0
83  0
84  0
85  0
86  0
87  0
88  0
89  0
90  0
91  0
92  0
93  0
94  0
95  0
96  0
97  0
98  0
99  0
100  0
101  0
102  0
103  0
104  0
105  0
106  0
107  0
108  0
109  0
110  0
111  0
112  0
113  0
114  0
115  0
116  0
117  0
118  0
119  0
120  0
121  0
122  0
123  0
124  0
125  0
126  0
127  0
128  0
129  0
130  0
131  0
132  0
133  0
134  0
135  0
136  0
137  0
138  0
139  0
140  0
141  0
142  0
143  0
144  0
145  0
146  0
147  0
148  0
149  0
150  0
151  0
152  0
153  0
154  0
155  0
156  0
157  0
158  0
159  0
160  0
161  0
162  0
163  0
164  0
165  0
166  0
167  0
168  0
169  0
170  0
171  0
172  0
173  0
174  0
175  0
176  0
177  0
178  0
179  0
180  0
181  0
182  0
183  0
184  0
185  0
186  0
187  0
188  0
189  0
190  0
191  0
192  0
193  0
194  0
195  0
196  0
197  0
198  0
199  0
200  0
201  0
202  0
203  0
204  0
205  0
206  0
207  0
208  0
209  0
210  0
211  0
212  0
213  0
214  0
215  0
216  0
217  0
218  0
219  0
220  0
221  0
222  0
223  0
224  0
225  0
226  0
227  0
228  0
229  0
230  0
231  0
232  0
233  0
234  0
235  0
236  0
237  0
238  0
239  0
240  0
241  0
242  0
243  0
244  0
245  0
246  0
247  0
248  0
249  1
250  0
251  0
252  0
253  0
254  2
255  0
256  0
257  1
258  1
259  2
260  1
261  3
262  2
263  5
264  2
265  0
266  2
267  3
268  3
269  4
270  4
271  5
272  5
273  9
274  3
275  5
276  8
277  9
278  5
279  5
280  5
281  5
282  6
283  9
284  9
285  8
286  14
287  12
288  11
289  11
290  14
291  12
292  10
293  11
294  18
295  15
296  18
297  10
298  18
299  18
300  11
301  13
302  12
303  14
304  8
305  21
306  20
307  14
308  18
309  16
310  27
311  17
312  13
313  18
314  18
315  23
316  17
317  17
318  12
319  25
320  24
321  21
322  14
323  16
324  21
325  15
326  9
327  18
328  24
329  16
330  25
331  27
332  22
333  24
334  23
335  17
336  13
337  23
338  22
339  17
340  18
341  22
342  20
343  26
344  20
345  19
346  19
347  19
348  20
349  21
350  28
351  20
352  18
353  15
354  22
355  27
356  18
357  30
358  20
359  31
360  24
361  28
362  18
363  19
364  24
365  26
366  28
367  26
368  20
369  28
370  21
371  23
372  18
373  26
374  22
375  25
376  33
377  28
378  28
379  25
380  27
381  17
382  20
383  25
384  24
385  32
386  21
387  30
388  25
389  23
390  33
391  18
392  23
393  13
394  20
395  21
396  23
397  21
398  16
399  22
400  14
401  29
402  27
403  23
404  19
405  34
406  24
407  30
408  29
409  22
410  22
411  24
412  25
413  21
414  23
415  27
416  18
417  24
418  25
419  22
420  25
421  24
422  28
423  23
424  21
425  29
426  25
427  20
428  18
429  30
430  22
431  18
432  25
433  30
434  25
435  26
436  34
437  28
438  29
439  29
440  31
441  20
442  31
443  26
444  18
445  43
446  25
447  27
448  21
449  22
450  29
451  30
452  20
453  29
454  27
455  33
456  20
457  26
458  26
459  21
460  37
461  19
462  30
463  23
464  24
465  28
466  38
467  22
468  36
469  27
470  19
471  26
472  30
473  33
474  22
475  33
476  25
477  26
478  31
479  31
480  33
481  27
482  28
483  28
484  24
485  25
486  33
487  37
488  28
489  30
490  37
491  28
492  26
493  31
494  44
495  33
496  40
497  36
498  27
499  35
500  32
501  41
502  32
503  31
504  31
505  33
506  28
507  35
508  32
509  33
510  33
511  24
512  32
513  45
514  37
515  34
516  37
517  38
518  32
519  43
520  47
521  38
522  34
523  34
524  41
525  49
526  29
527  60
528  60
529  88
530  90
531  85
532  97
533  98
534  144
535  290
536  437
537  637
538  692
539  723
540  637
541  468
542  283
543  161
544  73
545  51
546  29
547  27
548  23
549  34
550  23
551  25
552  32
553  27
554  33
555  35
556  25
557  34
558  26
559  32
560  31
561  28
562  28
563  32
564  24
565  24
566  26
567  24
568  33
569  19
570  32
571  29
572  31
573  27
574  29
575  17
576  20
577  28
578  27
579  21
580  24
581  27
582  31
583  31
584  27
585  36
586  31
587  27
588  33
589  34
590  23
591  25
592  27
593  33
594  30
595  22
596  29
597  33
598  24
599  28
600  36
601  41
602  26
603  27
604  30
605  24
606  30
607  26
608  33
609  26
610  33
611  34
612  25
613  20
614  38
615  31
616  37
617  33
618  20
619  28
620  32
621  32
622  30
623  26
624  37
625  38
626  23
627  31
628  29
629  33
630  35
631  26
632  27
633  42
634  32
635  35
636  32
637  19
638  25
639  36
640  34
641  31
642  23
643  34
644  42
645  28
646  21
647  33
648  38
649  22
650  28
651  29
652  25
653  43
654  31
655  21
656  37
657  20
658  36
659  31
660  37
661  33
662  31
663  29
664  27
665  37
666  30
667  38
668  41
669  34
670  35
671  22
672  30
673  26
674  30
675  29
676  19
677  36
678  35
679  35
680  41
681  31
682  28
683  29
684  36
685  28
686  31
687  31
688  25
689  27
690  27
691  34
692  39
693  32
694  34
695  40
696  46
697  32
698  30
699  33
700  38
701  37
702  27
703  31
704  39
705  25
706  26
707  29
708  30
709  28
710  26
711  34
712  35
713  38
714  29
715  38
716  38
717  23
718  23
719  24
720  31
721  39
722  24
723  28
724  27
725  37
726  27
727  23
728  25
729  37
730  27
731  29
732  34
733  37
734  29
735  42
736  30
737  34
738  25
739  26
740  31
741  31
742  39
743  23
744  28
745  30
746  30
747  34
748  24
749  43
750  31
751  35
752  26
753  26
754  38
755  23
756  27
757  32
758  35
759  30
760  35
761  39
762  34
763  29
764  31
765  23
766  33
767  27
768  27
769  34
770  31
771  33
772  28
773  35
774  24
775  27
776  25
777  35
778  30
779  26
780  30
781  33
782  36
783  19
784  31
785  38
786  30
787  22
788  32
789  33
790  22
791  26
792  27
793  28
794  27
795  34
796  26
797  38
798  38
799  22
800  32
801  31
802  38
803  32
804  30
805  43
806  38
807  37
808  31
809  49
810  31
811  32
812  32
813  24
814  26
815  31
816  37
817  22
818  39
819  25
820  32
821  35
822  35
823  34
824  27
825  33
826  37
827  23
828  34
829  34
830  28
831  32
832  26
833  25
834  30
835  40
836  27
837  27
838  26
839  30
840  30
841  27
842  29
843  27
844  37
845  27
846  36
847  25
848  27
849  40
850  26
851  23
852  35
853  24
854  27
855  30
856  27
857  30
858  39
859  26
860  39
861  33
862  29
863  33
864  37
865  34
866  33
867  29
868  20
869  32
870  33
871  22
872  27
873  38
874  35
875  24
876  33
877  36
878  28
879  39
880  29
881  33
882  26
883  26
884  33
885  39
886  29
887  20
888  33
889  32
890  30
891  24
892  35
893  27
894  30
895  33
896  21
897  31
898  45
899  30
900  30
901  26
902  29
903  26
904  37
905  23
906  21
907  41
908  30
909  38
910  25
911  26
912  34
913  42
914  30
915  26
916  33
917  35
918  25
919  35
920  22
921  23
922  32
923  27
924  37
925  31
926  31
927  33
928  35
929  35
930  25
931  27
932  25
933  37
934  36
935  32
936  26
937  37
938  34
939  38
940  27
941  16
942  40
943  22
944  29
945  18
946  21
947  26
948  31
949  35
950  32
951  24
952  30
953  35
954  35
955  23
956  33
957  31
958  29
959  44
960  45
961  49
962  64
963  55
964  34
965  32
966  36
967  41
968  24
969  33
970  33
971  30
972  35
973  31
974  38
975  33
976  23
977  28
978  22
979  26
980  32
981  26
982  32
983  29
984  43
985  31
986  28
987  21
988  20
989  24
990  27
991  26
992  24
993  24
994  28
995  32
996  33
997  26
998  31
999  20
1000  26
1001  26
1002  22
1003  25
1004  33
1005  30
1006  23
1007  20
1008  16
1009  27
1010  27
1011  24
1012  29
1013  31
1014  25
1015  38
1016  31
1017  34
1018  23
1019  35
1020  32
1021  25
1022  28
1023  34
1024  21
1025  32
1026  34
1027  23
1028  29
1029  32
1030  39
1031  26
1032  21
1033  13
1034  25
1035  27
1036  22
1037  30
1038  28
1039  33
1040  20
1041  28
1042  33
1043  32
1044  25
1045  34
1046  23
1047  27
1048  32
1049  29
1050  35
1051  24
1052  28
1053  24
1054  25
1055  25
1056  29
1057  31
1058  29
1059  25
1060  30
1061  21
1062  28
1063  24
1064  22
1065  23
1066  25
1067  25
1068  23
1069  27
1070  29
1071  31
1072  26
1073  25
1074  22
1075  27
1076  25
1077  31
1078  19
1079  23
1080  28
1081  22
1082  24
1083  27
1084  30
1085  26
1086  27
1087  32
1088  24
1089  24
1090  25
1091  24
1092  33
1093  28
1094  26
1095  24
1096  27
1097  29
1098  28
1099  25
1100  32
1101  24
1102  24
1103  23
1104  26
1105  26
1106  22
1107  20
1108  24
1109  27
1110  21
1111  31
1112  27
1113  27
1114  22
1115  22
1116  22
1117  21
1118  19
1119  18
1120  18
1121  33
1122  33
1123  25
1124  23
1125  31
1126  21
1127  26
1128  22
1129  24
1130  30
1131  14
1132  22
1133  27
1134  29
1135  26
1136  16
1137  22
1138  29
1139  16
1140  25
1141  26
1142  38
1143  16
1144  24
1145  27
1146  31
1147  27
1148  27
1149  22
1150  25
1151  34
1152  29
1153  28
1154  12
1155  22
1156  21
1157  31
1158  26
1159  18
1160  31
1161  23
1162  21
1163  29
1164  19
1165  24
1166  22
1167  32
1168  24
1169  34
1170  21
1171  15
1172  23
1173  19
1174  23
1175  20
1176  25
1177  26
1178  22
1179  17
1180  26
1181  32
1182  25
1183  29
1184  28
1185  21
1186  26
1187  30
1188  29
1189  27
1190  24
1191  26
1192  30
1193  22
1194  21
1195  22
1196  22
1197  27
1198  20
1199  23
1200  15
1201  28
1202  23
1203  27
1204  21
1205  17
1206  19
1207  21
1208  15
1209  15
1210  22
1211  22
1212  17
1213  19
1214  15
1215  23
1216  26
1217  28
1218  20
1219  16
1220  15
1221  22
1222  19
1223  16
1224  18
1225  17
1226  16
1227  24
1228  14
1229  14
1230  20
1231  13
1232  17
1233  15
1234  20
1235  24
1236  16
1237  28
1238  13
1239  17
1240  10
1241  18
1242  18
1243  25
1244  15
1245  15
1246  18
1247  19
1248  19
1249  12
1250  20
1251  16
1252  15
1253  19
1254  13
1255  13
1256  23
1257  15
1258  15
1259  17
1260  15
1261  18
1262  13
1263  19
1264  23
1265  16
1266  23
1267  21
1268  20
1269  15
1270  14
1271  16
1272  13
1273  15
1274  15
1275  19
1276  23
1277  22
1278  11
1279  14
1280  13
1281  11
1282  17
1283  11
1284  11
1285  20
1286  19
1287  22
1288  20
1289  29
1290  24
1291  18
1292  13
1293  15
1294  11
1295  16
1296  23
1297  19
1298  11
1299  20
1300  19
1301  8
1302  7
1303  14
1304  13
1305  12
1306  15
1307  17
1308  21
1309  16
1310  18
1311  14
1312  25
1313  18
1314  16
1315  9
1316  16
1317  10
1318  11
1319  16
1320  17
1321  13
1322  18
1323  13
1324  18
1325  11
1326  16
1327  12
1328  15
1329  15
1330  13
1331  12
1332  12
1333  21
1334  12
1335  11
1336  9
1337  14
1338  12
1339  13
1340  8
1341  18
1342  13
1343  15
1344  11
1345  13
1346  17
1347  11
1348  15
1349  10
1350  15
1351  16
1352  13
1353  10
1354  14
1355  11
1356  6
1357  9
1358  10
1359  16
1360  10
1361  13
1362  7
1363  15
1364  17
1365  27
1366  17
1367  15
1368  23
1369  16
1370  18
1371  26
1372  13
1373  5
1374  12
1375  10
1376  10
1377  13
1378  13
1379  16
1380  11
1381  12
1382  15
1383  10
1384  13
1385  15
1386  27
1387  19
1388  13
1389  7
1390  17
1391  15
1392  12
1393  9
1394  19
1395  13
1396  13
1397  9
1398  6
1399  10
1400  7
1401  12
1402  13
1403  13
1404  13
1405  3
1406  10
1407  12
1408  15
1409  14
1410  12
1411  13
1412  8
1413  13
1414  18
1415  7
1416  12
1417  8
1418  14
1419  9
1420  11
1421  12
1422  14
1423  4
1424  9
1425  5
1426  10
1427  17
1428  8
1429  13
1430  14
1431  10
1432  4
1433  14
1434  9
1435  9
1436  9
1437  8
1438  13
1439  14
1440  12
1441  10
1442  9
1443  7
1444  12
1445  8
1446  15
1447  11
1448  9
1449  6
1450  7
1451  7
1452  9
1453  14
1454  16
1455  13
1456  8
1457  10
1458  3
1459  11
1460  10
1461  14
1462  10
1463  5
1464  15
1465  9
1466  11
1467  17
1468  10
1469  6
1470  11
1471  9
1472  11
1473  13
1474  12
1475  13
1476  10
1477  8
1478  8
1479  14
1480  10
1481  8
1482  16
1483  14
1484  4
1485  8
1486  7
1487  8
1488  8
1489  17
1490  7
1491  6
1492  5
1493  8
1494  10
1495  11
1496  7
1497  8
1498  10
1499  10
1500  9
1501  11
1502  12
1503  10
1504  9
1505  9
1506  12
1507  12
1508  7
1509  9
1510  8
1511  6
1512  10
1513  15
1514  11
1515  12
1516  7
1517  9
1518  9
1519  3
1520  15
1521  7
1522  9
1523  8
1524  9
1525  8
1526  9
1527  10
1528  12
1529  4
1530  8
1531  13
1532  8
1533  9
1534  6
1535  6
1536  10
1537  9
1538  4
1539  7
1540  10
1541  5
1542  11
1543  7
1544  7
1545  7
1546  17
1547  9
1548  6
1549  5
1550  10
1551  11
1552  14
1553  13
1554  5
1555  10
1556  11
1557  13
1558  14
1559  33
1560  45
1561  83
1562  83
1563  115
1564  115
1565  112
1566  77
1567  69
1568  37
1569  17
1570  16
1571  7
1572  9
1573  7
1574  7
1575  9
1576  7
1577  11
1578  4
1579  8
1580  6
1581  4
1582  13
1583  8
1584  11
1585  13
1586  11
1587  5
1588  3
1589  2
1590  5
1591  9
1592  9
1593  9
1594  7
1595  12
1596  7
1597  10
1598  4
1599  7
1600  8
1601  11
1602  11
1603  8
1604  2
1605  8
1606  9
1607  10
1608  9
1609  10
1610  10
1611  5
1612  6
1613  6
1614  4
1615  12
1616  6
1617  10
1618  4
1619  2
1620  3
1621  7
1622  11
1623  8
1624  9
1625  13
1626  5
1627  7
1628  11
1629  11
1630  15
1631  5
1632  9
1633  14
1634  9
1635  9
1636  5
1637  12
1638  2
1639  6
1640  7
1641  5
1642  4
1643  9
1644  7
1645  6
1646  6
1647  5
1648  10
1649  10
1650  13
1651  5
1652  3
1653  9
1654  3
1655  13
1656  3
1657  11
1658  11
1659  12
1660  11
1661  9
1662  23
1663  16
1664  12
1665  6
1666  8
1667  8
1668  6
1669  13
1670  9
1671  7
1672  9
1673  7
1674  8
1675  3
1676  3
1677  5
1678  10
1679  10
1680  9
1681  5
1682  4
1683  2
1684  11
1685  7
1686  12
1687  9
1688  7
1689  6
1690  12
1691  5
1692  14
1693  12
1694  21
1695  30
1696  64
1697  88
1698  156
1699  200
1700  218
1701  257
1702  229
1703  189
1704  142
1705  87
1706  37
1707  16
1708  11
1709  6
1710  10
1711  7
1712  8
1713  10
1714  5
1715  7
1716  8
1717  10
1718  9
1719  8
1720  3
1721  5
1722  6
1723  7
1724  6
1725  6
1726  3
1727  8
1728  5
1729  2
1730  7
1731  8
1732  7
1733  7
1734  8
1735  7
1736  3
1737  6
1738  4
1739  4
1740  6
1741  8
1742  7
1743  9
1744  4
1745  6
1746  5
1747  3
1748  5
1749  8
1750  1
1751  7
1752  8
1753  6
1754  10
1755  6
1756  3
1757  10
1758  5
1759  6
1760  8
1761  8
1762  11
1763  7
1764  7
1765  8
1766  6
1767  6
1768  5
1769  6
1770  7
1771  6
1772  7
1773  3
1774  8
1775  2
1776  4
1777  6
1778  4
1779  6
1780  6
1781  5
1782  3
1783  5
1784  5
1785  10
1786  5
1787  5
1788  10
1789  5
1790  8
1791  8
1792  3
1793  4
1794  5
1795  2
1796  4
1797  11
1798  3
1799  4
1800  8
1801  5
1802  6
1803  5
1804  5
1805  9
1806  7
1807  4
1808  9
1809  1
1810  4
1811  11
1812  10
1813  11
1814  7
1815  4
1816  9
1817  8
1818  4
1819  5
1820  5
1821  10
1822  3
1823  6
1824  8
1825  6
1826  2
1827  3
1828  3
1829  5
1830  3
1831  6
1832  9
1833  2
1834  10
1835  7
1836  4
1837  5
1838  3
1839  2
1840  4
1841  8
1842  5
1843  3
1844  2
1845  8
1846  7
1847  4
1848  3
1849  11
1850  3
1851  2
1852  2
1853  6
1854  4
1855  5
1856  2
1857  6
1858  7
1859  6
1860  2
1861  6
1862  2
1863  4
1864  8
1865  4
1866  5
1867  3
1868  6
1869  7
1870  8
1871  4
1872  2
1873  2
1874  8
1875  7
1876  4
1877  5
1878  4
1879  2
1880  4
1881  8
1882  3
1883  4
1884  6
1885  8
1886  3
1887  7
1888  7
1889  1
1890  3
1891  4
1892  8
1893  5
1894  4
1895  3
1896  4
1897  5
1898  4
1899  7
1900  5
1901  7
1902  3
1903  5
1904  2
1905  3
1906  5
1907  4
1908  3
1909  4
1910  10
1911  9
1912  4
1913  8
1914  7
1915  4
1916  5
1917  5
1918  7
1919  1
1920  4
1921  9
1922  9
1923  6
1924  5
1925  5
1926  4
1927  4
1928  6
1929  3
1930  6
1931  9
1932  7
1933  4
1934  4
1935  4
1936  3
1937  3
1938  2
1939  3
1940  6
1941  5
1942  4
1943  7
1944  0
1945  7
1946  6
1947  2
1948  7
1949  3
1950  5
1951  8
1952  16
1953  18
1954  17
1955  14
1956  16
1957  11
1958  10
1959  12
1960  9
1961  9
1962  9
1963  8
1964  7
1965  4
1966  9
1967  8
1968  21
1969  45
1970  68
1971  111
1972  208
1973  317
1974  483
1975  624
1976  669
1977  647
1978  504
1979  362
1980  246
1981  163
1982  57
1983  34
1984  19
1985  12
1986  7
1987  2
1988  5
1989  3
1990  3
1991  3
1992  3
1993  3
1994  5
1995  2
1996  3
1997  4
1998  5
1999  3
2000  2
2001  2
2002  3
2003  0
2004  3
2005  4
2006  2
2007  0
2008  2
2009  5
2010  3
2011  4
2012  4
2013  3
2014  3
2015  8
2016  2
2017  2
2018  3
2019  4
2020  3
2021  1
2022  6
2023  3
2024  1
2025  4
2026  5
2027  3
2028  3
2029  2
2030  5
2031  2
2032  3
2033  3
2034  3
2035  5
2036  0
2037  2
2038  4
2039  4
2040  2
2041  5
2042  3
2043  3
2044  2
2045  2
2046  2
2047  1
2048  4
2049  1
2050  4
2051  2
2052  0
2053  3
2054  2
2055  4
2056  2
2057  3
2058  5
2059  4
2060  3
2061  2
2062  0
2063  2
2064  3
2065  2
2066  3
2067  1
2068  2
2069  6
2070  5
2071  4
2072  2
2073  3
2074  0
2075  1
2076  4
2077  2
2078  4
2079  1
2080  2
2081  3
2082  4
2083  4
2084  2
2085  3
2086  4
2087  0
2088  2
2089  2
2090  4
2091  3
2092  4
2093  4
2094  3
2095  0
2096  0
2097  4
2098  1
2099  2
2100  3
2101  1
2102  7
2103  3
2104  3
2105  3
2106  2
2107  3
2108  3
2109  2
2110  4
2111  7
2112  4
2113  3
2114  13
2115  14
2116  30
2117  44
2118  64
2119  61
2120  85
2121  86
2122  75
2123  63
2124  35
2125  19
2126  14
2127  5
2128  4
2129  6
2130  5
2131  3
2132  3
2133  2
2134  1
2135  1
2136  4
2137  2
2138  2
2139  1
2140  2
2141  3
2142  1
2143  1
2144  4
2145  4
2146  1
2147  3
2148  7
2149  5
2150  5
2151  4
2152  3
2153  2
2154  1
2155  2
2156  5
2157  1
2158  2
2159  2
2160  3
2161  5
2162  0
2163  4
2164  5
2165  1
2166  4
2167  4
2168  1
2169  2
2170  1
2171  2
2172  2
2173  2
2174  2
2175  3
2176  5
2177  2
2178  5
2179  1
2180  3
2181  1
2182  0
2183  2
2184  3
2185  5
2186  1
2187  2
2188  3
2189  3
2190  0
2191  1
2192  0
2193  0
2194  5
2195  2
2196  4
2197  5
2198  2
2199  4
2200  4
2201  1
2202  1
2203  1
2204  0
2205  6
2206  1
2207  2
2208  2
2209  1
2210  2
2211  5
2212  1
2213  1
2214  4
2215  3
2216  0
2217  1
2218  5
2219  0
2220  3
2221  2
2222  2
2223  2
2224  0
2225  3
2226  2
2227  1
2228  2
2229  3
2230  4
2231  2
2232  0
2233  2
2234  0
2235  0
2236  1
2237  2
2238  1
2239  1
2240  3
2241  2
2242  0
2243  2
2244  0
2245  5
2246  3
2247  1
2248  0
2249  4
2250  2
2251  3
2252  0
2253  1
2254  3
2255  4
2256  2
2257  1
2258  3
2259  1
2260  0
2261  1
2262  3
2263  3
2264  2
2265  3
2266  1
2267  5
2268  3
2269  1
2270  1
2271  2
2272  0
2273  3
2274  1
2275  3
2276  3
2277  1
2278  2
2279  0
2280  2
2281  1
2282  1
2283  1
2284  0
2285  2
2286  4
2287  1
2288  5
2289  2
2290  4
2291  3
2292  1
2293  1
2294  2
2295  1
2296  2
2297  1
2298  5
2299  1
2300  2
2301  3
2302  1
2303  3
2304  1
2305  0
2306  1
2307  1
2308  3
2309  3
2310  2
2311  3
2312  2
2313  2
2314  3
2315  1
2316  0
2317  1
2318  0
2319  4
2320  1
2321  4
2322  0
2323  0
2324  3
2325  4
2326  2
2327  4
2328  1
2329  2
2330  0
2331  1
2332  1
2333  3
2334  1
2335  1
2336  1
2337  0
2338  6
2339  1
2340  3
2341  3
2342  1
2343  5
2344  3
2345  3
2346  5
2347  1
2348  1
2349  5
2350  2
2351  0
2352  1
2353  3
2354  3
2355  0
2356  5
2357  2
2358  3
2359  2
2360  2
2361  3
2362  0
2363  2
2364  1
2365  3
2366  5
2367  2
2368  3
2369  0
2370  3
2371  0
2372  1
2373  2
2374  3
2375  2
2376  0
2377  1
2378  4
2379  0
2380  4
2381  2
2382  0
2383  4
2384  2
2385  3
2386  2
2387  1
2388  1
2389  2
2390  1
2391  1
2392  10
2393  5
2394  7
2395  9
2396  12
2397  9
2398  5
2399  2
2400  4
2401  2
2402  1
2403  2
2404  0
2405  3
2406  0
2407  3
2408  2
2409  0
2410  0
2411  1
2412  2
2413  2
2414  1
2415  1
2416  3
2417  3
2418  2
2419  3
2420  0
2421  1
2422  1
2423  3
2424  4
2425  0
2426  1
2427  3
2428  2
2429  3
2430  1
2431  3
2432  5
2433  0
2434  1
2435  0
2436  1
2437  1
2438  1
2439  0
2440  1
2441  2
2442  0
2443  0
2444  1
2445  1
2446  3
2447  2
2448  0
2449  1
2450  2
2451  0
2452  2
2453  2
2454  4
2455  1
2456  2
2457  1
2458  1
2459  2
2460  0
2461  0
2462  0
2463  1
2464  1
2465  0
2466  2
2467  1
2468  1
2469  4
2470  5
2471  1
2472  1
2473  1
2474  2
2475  3
2476  1
2477  2
2478  4
2479  0
2480  0
2481  6
2482  1
2483  1
2484  2
2485  0
2486  4
2487  3
2488  3
2489  0
2490  2
2491  2
2492  2
2493  0
2494  6
2495  2
2496  2
2497  1
2498  2
2499  0
2500  1
2501  1
2502  0
2503  1
2504  3
2505  1
2506  1
2507  1
2508  2
2509  1
2510  3
2511  4
2512  3
2513  1
2514  1
2515  2
2516  1
2517  1
2518  2
2519  2
2520  1
2521  0
2522  1
2523  1
2524  2
2525  0
2526  2
2527  6
2528  5
2529  0
2530  1
2531  4
2532  1
2533  1
2534  3
2535  1
2536  0
2537  0
2538  5
2539  2
2540  1
2541  3
2542  3
2543  0
2544  3
2545  1
2546  1
2547  1
2548  0
2549  3
2550  3
2551  0
2552  3
2553  2
2554  2
2555  0
2556  0
2557  0
2558  0
2559  1
2560  1
2561  0
2562  0
2563  2
2564  3
2565  0
2566  3
2567  1
2568  1
2569  2
2570  1
2571  1
2572  3
2573  5
2574  0
2575  2
2576  0
2577  0
2578  2
2579  2
2580  0
2581  1
2582  1
2583  0
2584  1
2585  2
2586  0
2587  3
2588  3
2589  2
2590  2
2591  2
2592  5
2593  4
2594  1
2595  2
2596  0
2597  1
2598  1
2599  1
2600  1
2601  1
2602  0
2603  1
2604  1
2605  3
2606  2
2607  1
2608  0
2609  0
2610  2
2611  1
2612  2
2613  1
2614  2
2615  0
2616  3
2617  1
2618  1
2619  2
2620  0
2621  0
2622  3
2623  1
2624  2
2625  0
2626  3
2627  1
2628  0
2629  1
2630  0
2631  1
2632  1
2633  6
2634  1
2635  0
2636  1
2637  1
2638  0
2639  3
2640  0
2641  1
2642  1
2643  0
2644  0
2645  3
2646  2
2647  1
2648  2
2649  3
2650  1
2651  5
2652  4
2653  2
2654  3
2655  3
2656  2
2657  1
2658  1
2659  1
2660  2
2661  1
2662  1
2663  2
2664  1
2665  3
2666  3
2667  1
2668  2
2669  2
2670  2
2671  1
2672  2
2673  2
2674  2
2675  2
2676  1
2677  4
2678  3
2679  4
2680  2
2681  2
2682  1
2683  1
2684  1
2685  2
2686  2
2687  2
2688  0
2689  0
2690  0
2691  2
2692  2
2693  1
2694  4
2695  2
2696  1
2697  0
2698  1
2699  2
2700  0
2701  1
2702  0
2703  2
2704  1
2705  4
2706  2
2707  0
2708  1
2709  1
2710  2
2711  3
2712  3
2713  0
2714  2
2715  2
2716  1
2717  1
2718  1
2719  0
2720  1
2721  0
2722  0
2723  1
2724  0
2725  0
2726  3
2727  2
2728  0
2729  1
2730  3
2731  0
2732  1
2733  2
2734  2
2735  1
2736  1
2737  0
2738  1
2739  2
2740  0
2741  0
2742  1
2743  0
2744  2
2745  1
2746  0
2747  0
2748  2
2749  1
2750  2
2751  2
2752  1
2753  1
2754  1
2755  0
2756  1
2757  1
2758  1
2759  1
2760  4
2761  2
2762  3
2763  1
2764  1
2765  0
2766  2
2767  3
2768  3
2769  2
2770  1
2771  1
2772  2
2773  1
2774  0
2775  1
2776  1
2777  5
2778  1
2779  2
2780  5
2781  3
2782  2
2783  0
2784  2
2785  1
2786  2
2787  1
2788  0
2789  1
2790  0
2791  1
2792  3
2793  0
2794  3
2795  4
2796  0
2797  1
2798  3
2799  1
2800  1
2801  0
2802  0
2803  0
2804  1
2805  1
2806  3
2807  0
2808  0
2809  2
2810  0
2811  4
2812  0
2813  2
2814  1
2815  4
2816  5
2817  1
2818  1
2819  0
2820  0
2821  1
2822  0
2823  0
2824  1
2825  0
2826  4
2827  0
2828  0
2829  0
2830  1
2831  2
2832  2
2833  2
2834  1
2835  2
2836  0
2837  2
2838  0
2839  1
2840  1
2841  3
2842  0
2843  1
2844  1
2845  2
2846  0
2847  4
2848  1
2849  1
2850  1
2851  0
2852  1
2853  0
2854  0
2855  3
2856  2
2857  3
2858  1
2859  2
2860  2
2861  0
2862  1
2863  1
2864  1
2865  4
2866  1
2867  0
2868  0
2869  0
2870  0
2871  0
2872  1
2873  2
2874  0
2875  2
2876  2
2877  2
2878  2
2879  0
2880  0
2881  2
2882  2
2883  2
2884  3
2885  0
2886  1
2887  0
2888  1
2889  2
2890  1
2891  0
2892  2
2893  0
2894  1
2895  0
2896  2
2897  2
2898  2
2899  0
2900  2
2901  1
2902  2
2903  2
2904  0
2905  1
2906  5
2907  3
2908  1
2909  2
2910  2
2911  1
2912  0
2913  1
2914  1
2915  2
2916  2
2917  2
2918  0
2919  0
2920  5
2921  3
2922  0
2923  0
2924  1
2925  0
2926  0
2927  1
2928  1
2929  2
2930  0
2931  1
2932  1
2933  2
2934  1
2935  2
2936  2
2937  0
2938  1
2939  1
2940  0
2941  0
2942  1
2943  0
2944  2
2945  1
2946  1
2947  0
2948  1
2949  1
2950  2
2951  0
2952  0
2953  2
2954  2
2955  3
2956  2
2957  0
2958  2
2959  0
2960  3
2961  0
2962  2
2963  2
2964  0
2965  4
2966  3
2967  1
2968  2
2969  1
2970  0
2971  1
2972  1
2973  2
2974  0
2975  1
2976  0
2977  1
2978  0
2979  1
2980  2
2981  1
2982  3
2983  1
2984  1
2985  1
2986  0
2987  1
2988  0
2989  0
2990  0
2991  1
2992  2
2993  1
2994  0
2995  1
2996  0
2997  2
2998  2
2999  2
3000  0
3001  0
3002  2
3003  0
3004  1
3005  3
3006  0
3007  1
3008  0
3009  1
3010  3
3011  0
3012  0
3013  1
3014  1
3015  2
3016  0
3017  0
3018  2
3019  2
3020  1
3021  1
3022  0
3023  3
3024  0
3025  0
3026  3
3027  2
3028  2
3029  1
3030  2
3031  0
3032  2
3033  2
3034  3
3035  1
3036  0
3037  1
3038  0
3039  0
3040  0
3041  1
3042  4
3043  0
3044  1
3045  3
3046  2
3047  1
3048  3
3049  1
3050  3
3051  1
3052  3
3053  0
3054  0
3055  1
3056  3
3057  3
3058  1
3059  0
3060  2
3061  1
3062  0
3063  1
3064  2
3065  2
3066  0
3067  0
3068  2
3069  0
3070  1
3071  2
3072  0
3073  1
3074  2
3075  2
3076  2
3077  0
3078  1
3079  1
3080  2
3081  1
3082  0
3083  0
3084  0
3085  2
3086  1
3087  0
3088  1
3089  1
3090  0
3091  1
3092  0
3093  2
3094  1
3095  1
3096  0
3097  1
3098  1
3099  1
3100  1
3101  0
3102  1
3103  0
3104  0
3105  1
3106  0
3107  0
3108  0
3109  2
3110  3
3111  0
3112  0
3113  2
3114  4
3115  2
3116  2
3117  0
3118  1
3119  1
3120  0
3121  3
3122  0
3123  0
3124  0
3125  1
3126  0
3127  1
3128  1
3129  1
3130  3
3131  1
3132  1
3133  2
3134  0
3135  1
3136  2
3137  1
3138  3
3139  1
3140  0
3141  0
3142  0
3143  1
3144  0
3145  5
3146  3
3147  0
3148  3
3149  4
3150  4
3151  3
3152  5
3153  2
3154  5
3155  2
3156  2
3157  1
3158  1
3159  0
3160  2
3161  0
3162  2
3163  2
3164  0
3165  1
3166  1
3167  0
3168  0
3169  1
3170  2
3171  1
3172  0
3173  0
3174  1
3175  1
3176  0
3177  1
3178  0
3179  0
3180  1
3181  1
3182  3
3183  1
3184  0
3185  0
3186  0
3187  1
3188  0
3189  2
3190  0
3191  1
3192  0
3193  0
3194  2
3195  2
3196  2
3197  0
3198  1
3199  0
3200  1
3201  1
3202  3
3203  1
3204  2
3205  1
3206  2
3207  1
3208  0
3209  0
3210  0
3211  4
3212  2
3213  1
3214  1
3215  1
3216  1
3217  1
3218  1
3219  0
3220  0
3221  3
3222  1
3223  2
3224  0
3225  0
3226  1
3227  0
3228  1
3229  0
3230  0
3231  1
3232  2
3233  1
3234  0
3235  0
3236  0
3237  0
3238  0
3239  1
3240  0
3241  0
3242  1
3243  1
3244  3
3245  1
3246  1
3247  0
3248  0
3249  2
3250  1
3251  1
3252  3
3253  2
3254  0
3255  1
3256  1
3257  1
3258  0
3259  0
3260  1
3261  1
3262  1
3263  0
3264  0
3265  1
3266  1
3267  0
3268  1
3269  1
3270  0
3271  0
3272  1
3273  3
3274  1
3275  2
3276  0
3277  1
3278  1
3279  1
3280  2
3281  2
3282  2
3283  4
3284  8
3285  9
3286  9
3287  9
3288  7
3289  4
3290  7
3291  3
3292  3
3293  4
3294  0
3295  0
3296  0
3297  2
3298  0
3299  0
3300  0
3301  0
3302  2
3303  0
3304  0
3305  2
3306  2
3307  1
3308  1
3309  0
3310  2
3311  1
3312  1
3313  1
3314  0
3315  1
3316  1
3317  0
3318  1
3319  2
3320  1
3321  2
3322  0
3323  0
3324  5
3325  1
3326  2
3327  1
3328  1
3329  1
3330  1
3331  0
3332  1
3333  0
3334  0
3335  1
3336  0
3337  0
3338  1
3339  2
3340  2
3341  0
3342  1
3343  0
3344  3
3345  1
3346  2
3347  0
3348  1
3349  0
3350  1
3351  0
3352  0
3353  0
3354  2
3355  2
3356  0
3357  1
3358  1
3359  1
3360  1
3361  2
3362  1
3363  2
3364  2
3365  2
3366  0
3367  0
3368  2
3369  2
3370  1
3371  0
3372  0
3373  0
3374  3
3375  0
3376  1
3377  3
3378  1
3379  1
3380  0
3381  1
3382  1
3383  0
3384  0
3385  1
3386  0
3387  1
3388  3
3389  1
3390  1
3391  3
3392  0
3393  0
3394  1
3395  1
3396  0
3397  1
3398  1
3399  2
3400  1
3401  0
3402  0
3403  2
3404  3
3405  0
3406  1
3407  0
3408  0
3409  1
3410  1
3411  1
3412  1
3413  2
3414  1
3415  1
3416  0
3417  1
3418  1
3419  0
3420  0
3421  0
3422  1
3423  1
3424  0
3425  1
3426  0
3427  5
3428  1
3429  2
3430  0
3431  0
3432  1
3433  0
3434  1
3435  1
3436  2
3437  0
3438  1
3439  0
3440  0
3441  0
3442  2
3443  2
3444  0
3445  4
3446  1
3447  0
3448  0
3449  1
3450  1
3451  0
3452  0
3453  1
3454  0
3455  2
3456  4
3457  1
3458  0
3459  0
3460  0
3461  0
3462  0
3463  2
3464  2
3465  2
3466  0
3467  2
3468  0
3469  0
3470  1
3471  2
3472  0
3473  0
3474  0
3475  1
3476  1
3477  1
3478  1
3479  1
3480  0
3481  0
3482  0
3483  0
3484  0
3485  0
3486  1
3487  1
3488  0
3489  1
3490  0
3491  0
3492  2
3493  1
3494  0
3495  2
3496  3
3497  1
3498  0
3499  0
3500  1
3501  1
3502  0
3503  3
3504  0
3505  1
3506  2
3507  1
3508  1
3509  0
3510  3
3511  3
3512  1
3513  2
3514  0
3515  0
3516  1
3517  0
3518  1
3519  0
3520  0
3521  1
3522  0
3523  1
3524  1
3525  1
3526  3
3527  0
3528  2
3529  1
3530  0
3531  1
3532  1
3533  0
3534  0
3535  2
3536  1
3537  1
3538  1
3539  1
3540  0
3541  1
3542  1
3543  1
3544  4
3545  0
3546  2
3547  1
3548  1
3549  1
3550  0
3551  0
3552  1
3553  2
3554  0
3555  1
3556  1
3557  0
3558  0
3559  0
3560  2
3561  0
3562  4
3563  0
3564  2
3565  1
3566  2
3567  0
3568  1
3569  0
3570  0
3571  2
3572  0
3573  0
3574  0
3575  0
3576  1
3577  2
3578  1
3579  0
3580  0
3581  2
3582  1
3583  3
3584  0
3585  1
3586  0
3587  1
3588  0
3589  1
3590  0
3591  2
3592  1
3593  1
3594  0
3595  0
3596  1
3597  0
3598  0
3599  0
3600  0
3601  1
3602  1
3603  0
3604  0
3605  2
3606  1
3607  0
3608  3
3609  1
3610  0
3611  0
3612  1
3613  0
3614  0
3615  0
3616  0
3617  0
3618  1
3619  1
3620  1
3621  0
3622  1
3623  4
3624  0
3625  0
3626  1
3627  0
3628  0
3629  0
3630  1
3631  1
3632  1
3633  2
3634  1
3635  1
3636  1
3637  1
3638  1
3639  0
3640  0
3641  0
3642  1
3643  1
3644  1
3645  0
3646  3
3647  0
3648  0
3649  1
3650  1
3651  1
3652  1
3653  2
3654  1
3655  1
3656  0
3657  0
3658  1
3659  1
3660  1
3661  0
3662  1
3663  1
3664  0
3665  0
3666  1
3667  1
3668  1
3669  0
3670  1
3671  0
3672  1
3673  0
3674  0
3675  0
3676  1
3677  0
3678  1
3679  1
3680  1
3681  1
3682  3
3683  4
3684  1
3685  1
3686  1
3687  1
3688  2
3689  0
3690  0
3691  1
3692  1
3693  0
3694  1
3695  2
3696  2
3697  1
3698  0
3699  1
3700  0
3701  0
3702  1
3703  1
3704  0
3705  1
3706  1
3707  0
3708  0
3709  0
3710  0
3711  0
3712  1
3713  1
3714  0
3715  0
3716  0
3717  0
3718  0
3719  2
3720  1
3721  0
3722  0
3723  0
3724  1
3725  0
3726  1
3727  0
3728  0
3729  0
3730  3
3731  0
3732  0
3733  0
3734  2
3735  1
3736  0
3737  1
3738  3
3739  1
3740  0
3741  1
3742  1
3743  1
3744  1
3745  4
3746  1
3747  0
3748  0
3749  0
3750  0
3751  0
3752  2
3753  1
3754  2
3755  1
3756  1
3757  0
3758  0
3759  1
3760  2
3761  0
3762  1
3763  1
3764  1
3765  0
3766  1
3767  2
3768  0
3769  0
3770  1
3771  1
3772  1
3773  0
3774  0
3775  1
3776  3
3777  1
3778  1
3779  1
3780  0
3781  1
3782  0
3783  0
3784  1
3785  0
3786  2
3787  1
3788  3
3789  2
3790  0
3791  0
3792  2
3793  0
3794  0
3795  1
3796  1
3797  0
3798  1
3799  1
3800  0
3801  1
3802  1
3803  1
3804  0
3805  0
3806  0
3807  1
3808  0
3809  1
3810  0
3811  0
3812  0
3813  2
3814  1
3815  0
3816  1
3817  1
3818  0
3819  0
3820  0
3821  0
3822  2
3823  2
3824  1
3825  1
3826  0
3827  0
3828  1
3829  0
3830  2
3831  1
3832  2
3833  0
3834  1
3835  1
3836  0
3837  2
3838  0
3839  0
3840  1
3841  0
3842  0
3843  1
3844  1
3845  1
3846  0
3847  1
3848  1
3849  1
3850  1
3851  1
3852  1
3853  0
3854  1
3855  1
3856  1
3857  0
3858  2
3859  1
3860  1
3861  2
3862  1
3863  0
3864  0
3865  0
3866  0
3867  0
3868  1
3869  0
3870  0
3871  1
3872  1
3873  0
3874  2
3875  0
3876  0
3877  3
3878  0
3879  2
3880  1
3881  1
3882  1
3883  1
3884  0
3885  1
3886  0
3887  0
3888  2
3889  0
3890  0
3891  0
3892  1
3893  0
3894  0
3895  1
3896  1
3897  1
3898  0
3899  2
3900  1
3901  1
3902  1
3903  2
3904  0
3905  1
3906  1
3907  2
3908  0
3909  2
3910  0
3911  0
3912  0
3913  1
3914  1
3915  0
3916  0
3917  2
3918  1
3919  1
3920  2
3921  1
3922  0
3923  0
3924  0
3925  1
3926  2
3927  0
3928  0
3929  0
3930  1
3931  2
3932  1
3933  0
3934  0
3935  1
3936  3
3937  0
3938  0
3939  1
3940  0
3941  0
3942  0
3943  0
3944  0
3945  0
3946  1
3947  1
3948  0
3949  0
3950  1
3951  0
3952  0
3953  0
3954  0
3955  0
3956  1
3957  3
3958  0
3959  0
3960  0
3961  0
3962  0
3963  2
3964  2
3965  0
3966  0
3967  0
3968  0
3969  0
3970  1
3971  1
3972  1
3973  1
3974  0
3975  0
3976  2
3977  1
3978  3
3979  1
3980  1
3981  0
3982  0
3983  1
3984  1
3985  0
3986  1
3987  0
3988  0
3989  0
3990  0
3991  0
3992  2
3993  1
3994  1
3995  0
3996  0
3997  0
3998  1
3999  0
4000  1
4001  2
4002  0
4003  1
4004  2
4005  1
4006  1
4007  0
4008  0
4009  1
4010  0
4011  1
4012  0
4013  0
4014  2
4015  0
4016  0
4017  0
4018  1
4019  2
4020  0
4021  0
4022  0
4023  0
4024  0
4025  0
4026  0
4027  0
4028  3
4029  1
4030  2
4031  2
4032  0
4033  0
4034  0
4035  1
4036  1
4037  0
4038  2
4039  0
4040  1
4041  0
4042  1
4043  1
4044  0
4045  1
4046  1
4047  1
4048  1
4049  0
4050  0
4051  0
4052  0
4053  0
4054  1
4055  0
4056  0
4057  0
4058  0
4059  1
4060  2
4061  3
4062  0
4063  0
4064  2
4065  0
4066  1
4067  0
4068  0
4069  1
4070  0
4071  1
4072  0
4073  0
4074  1
4075  0
4076  2
4077  1
4078  0
4079  2
4080  0
4081  2
4082  0
4083  2
4084  2
4085  1
4086  0
4087  1
4088  1
4089  0
4090  1
4091  3
4092  0
4093  1
4094  0
4095  1
4096  1
4097  0
4098  1
4099  1
4100  1
4101  2
4102  1
4103  1
4104  2
4105  0
4106  3
4107  0
4108  3
4109  2
4110  2
4111  1
4112  1
4113  2
4114  1
4115  0
4116  0
4117  0
4118  1
4119  2
4120  0
4121  0
4122  1
4123  0
4124  2
4125  1
4126  0
4127  1
4128  0
4129  2
4130  2
4131  3
4132  0
4133  2
4134  0
4135  1
4136  0
4137  1
4138  2
4139  0
4140  1
4141  0
4142  1
4143  0
4144  1
4145  1
4146  2
4147  0
4148  1
4149  0
4150  1
4151  1
4152  0
4153  1
4154  1
4155  1
4156  2
4157  1
4158  0
4159  0
4160  0
4161  0
4162  1
4163  0
4164  2
4165  0
4166  1
4167  0
4168  2
4169  0
4170  0
4171  0
4172  0
4173  1
4174  0
4175  1
4176  1
4177  1
4178  0
4179  1
4180  1
4181  3
4182  1
4183  0
4184  1
4185  0
4186  0
4187  0
4188  0
4189  0
4190  0
4191  1
4192  0
4193  0
4194  0
4195  2
4196  0
4197  0
4198  0
4199  1
4200  2
4201  1
4202  1
4203  2
4204  0
4205  2
4206  1
4207  1
4208  0
4209  1
4210  0
4211  0
4212  2
4213  1
4214  0
4215  0
4216  1
4217  2
4218  0
4219  0
4220  0
4221  0
4222  1
4223  1
4224  1
4225  0
4226  0
4227  0
4228  0
4229  1
4230  0
4231  0
4232  0
4233  0
4234  0
4235  0
4236  2
4237  1
4238  0
4239  0
4240  2
4241  0
4242  0
4243  1
4244  1
4245  2
4246  1
4247  1
4248  0
4249  0
4250  2
4251  2
4252  0
4253  1
4254  0
4255  0
4256  0
4257  0
4258  0
4259  0
4260  2
4261  0
4262  0
4263  0
4264  0
4265  0
4266  1
4267  1
4268  1
4269  0
4270  1
4271  0
4272  3
4273  0
4274  0
4275  1
4276  2
4277  1
4278  1
4279  1
4280  2
4281  1
4282  0
4283  2
4284  1
4285  0
4286  0
4287  0
4288  1
4289  0
4290  1
4291  0
4292  1
4293  0
4294  1
4295  0
4296  0
4297  0
4298  0
4299  0
4300  2
4301  1
4302  1
4303  0
4304  0
4305  0
4306  0
4307  0
4308  0
4309  1
4310  0
4311  1
4312  0
4313  0
4314  2
4315  0
4316  1
4317  0
4318  0
4319  2
4320  1
4321  0
4322  0
4323  0
4324  1
4325  0
4326  0
4327  0
4328  0
4329  1
4330  1
4331  0
4332  0
4333  1
4334  0
4335  1
4336  0
4337  0
4338  0
4339  0
4340  0
4341  0
4342  0
4343  1
4344  0
4345  1
4346  0
4347  1
4348  2
4349  1
4350  0
4351  0
4352  0
4353  1
4354  1
4355  2
4356  2
4357  1
4358  1
4359  1
4360  1
4361  0
4362  2
4363  0
4364  0
4365  1
4366  1
4367  1
4368  0
4369  1
4370  0
4371  0
4372  2
4373  0
4374  0
4375  0
4376  1
4377  0
4378  1
4379  0
4380  1
4381  0
4382  0
4383  0
4384  2
4385  0
4386  0
4387  1
4388  2
4389  0
4390  0
4391  0
4392  0
4393  1
4394  3
4395  1
4396  1
4397  0
4398  0
4399  0
4400  2
4401  0
4402  0
4403  2
4404  0
4405  1
4406  1
4407  0
4408  0
4409  0
4410  0
4411  0
4412  1
4413  0
4414  1
4415  0
4416  0
4417  1
4418  2
4419  1
4420  0
4421  0
4422  0
4423  1
4424  3
4425  1
4426  1
4427  0
4428  2
4429  0
4430  0
4431  2
4432  1
4433  2
4434  0
4435  1
4436  0
4437  0
4438  0
4439  2
4440  3
4441  0
4442  0
4443  0
4444  0
4445  0
4446  0
4447  0
4448  0
4449  0
4450  0
4451  1
4452  1
4453  0
4454  2
4455  0
4456  2
4457  0
4458  0
4459  0
4460  1
4461  0
4462  0
4463  1
4464  0
4465  0
4466  0
4467  0
4468  0
4469  1
4470  2
4471  0
4472  1
4473  1
4474  0
4475  1
4476  1
4477  1
4478  0
4479  0
4480  1
4481  0
4482  0
4483  0
4484  0
4485  1
4486  1
4487  1
4488  0
4489  0
4490  0
4491  0
4492  0
4493  1
4494  0
4495  1
4496  0
4497  0
4498  0
4499  1
4500  2
4501  0
4502  0
4503  1
4504  1
4505  0
4506  1
4507  0
4508  1
4509  0
4510  2
4511  0
4512  0
4513  0
4514  0
4515  0
4516  1
4517  0
4518  2
4519  1
4520  0
4521  1
4522  0
4523  3
4524  0
4525  1
4526  2
4527  1
4528  0
4529  1
4530  1
4531  1
4532  0
4533  0
4534  0
4535  0
4536  0
4537  0
4538  1
4539  0
4540  1
4541  1
4542  1
4543  0
4544  1
4545  1
4546  2
4547  0
4548  1
4549  0
4550  0
4551  0
4552  0
4553  0
4554  0
4555  0
4556  3
4557  0
4558  2
4559  0
4560  1
4561  0
4562  2
4563  0
4564  0
4565  0
4566  0
4567  0
4568  1
4569  1
4570  0
4571  2
4572  0
4573  0
4574  0
4575  0
4576  0
4577  1
4578  1
4579  1
4580  0
4581  1
4582  0
4583  0
4584  0
4585  1
4586  0
4587  1
4588  0
4589  1
4590  0
4591  0
4592  0
4593  1
4594  0
4595  1
4596  0
4597  0
4598  0
4599  0
4600  0
4601  1
4602  0
4603  1
4604  0
4605  1
4606  0
4607  0
4608  0
4609  0
4610  0
4611  1
4612  0
4613  1
4614  0
4615  1
4616  0
4617  0
4618  0
4619  0
4620  0
4621  0
4622  0
4623  1
4624  0
4625  1
4626  1
4627  0
4628  0
4629  2
4630  0
4631  0
4632  1
4633  0
4634  0
4635  0
4636  0
4637  1
4638  0
4639  0
4640  0
4641  1
4642  2
4643  0
4644  1
4645  0
4646  1
4647  0
4648  0
4649  0
4650  1
4651  1
4652  0
4653  0
4654  1
4655  0
4656  1
4657  0
4658  1
4659  0
4660  2
4661  0
4662  0
4663  2
4664  0
4665  0
4666  0
4667  0
4668  0
4669  0
4670  0
4671  0
4672  0
4673  0
4674  0
4675  0
4676  1
4677  0
4678  0
4679  1
4680  0
4681  0
4682  0
4683  0
4684  1
4685  1
4686  0
4687  0
4688  0
4689  1
4690  1
4691  1
4692  0
4693  1
4694  2
4695  2
4696  1
4697  0
4698  0
4699  1
4700  0
4701  0
4702  2
4703  1
4704  0
4705  0
4706  0
4707  1
4708  0
4709  0
4710  1
4711  1
4712  0
4713  1
4714  0
4715  1
4716  1
4717  1
4718  0
4719  0
4720  0
4721  0
4722  0
4723  2
4724  0
4725  1
4726  1
4727  0
4728  1
4729  0
4730  2
4731  1
4732  0
4733  2
4734  1
4735  0
4736  0
4737  0
4738  1
4739  1
4740  0
4741  0
4742  0
4743  0
4744  0
4745  1
4746  0
4747  1
4748  0
4749  2
4750  1
4751  1
4752  0
4753  0
4754  0
4755  0
4756  0
4757  0
4758  0
4759  2
4760  0
4761  0
4762  0
4763  0
4764  0
4765  1
4766  1
4767  0
4768  1
4769  0
4770  0
4771  0
4772  0
4773  0
4774  1
4775  2
4776  0
4777  0
4778  1
4779  0
4780  1
4781  0
4782  1
4783  0
4784  0
4785  2
4786  1
4787  2
4788  0
4789  2
4790  0
4791  0
4792  0
4793  1
4794  0
4795  0
4796  0
4797  1
4798  0
4799  0
4800  1
4801  2
4802  0
4803  0
4804  0
4805  1
4806  3
4807  0
4808  1
4809  0
4810  1
4811  0
4812  1
4813  0
4814  0
4815  1
4816  0
4817  0
4818  0
4819  0
4820  0
4821  1
4822  1
4823  0
4824  0
4825  0
4826  2
4827  0
4828  1
4829  0
4830  1
4831  1
4832  0
4833  1
4834  0
4835  1
4836  1
4837  0
4838  2
4839  1
4840  0
4841  2
4842  2
4843  3
4844  0
4845  3
4846  3
4847  1
4848  1
4849  1
4850  1
4851  1
4852  2
4853  1
4854  1
4855  0
4856  0
4857  1
4858  0
4859  0
4860  0
4861  1
4862  0
4863  0
4864  0
4865  0
4866  1
4867  0
4868  2
4869  0
4870  2
4871  1
4872  1
4873  0
4874  0
4875  0
4876  0
4877  0
4878  2
4879  0
4880  0
4881  0
4882  0
4883  0
4884  0
4885  1
4886  0
4887  1
4888  0
4889  0
4890  1
4891  1
4892  1
4893  2
4894  1
4895  1
4896  1
4897  0
4898  2
4899  0
4900  1
4901  1
4902  1
4903  0
4904  0
4905  0
4906  0
4907  0
4908  0
4909  0
4910  0
4911  0
4912  1
4913  0
4914  0
4915  2
4916  1
4917  0
4918  0
4919  0
4920  0
4921  0
4922  0
4923  1
4924  1
4925  1
4926  0
4927  1
4928  1
4929  1
4930  2
4931  0
4932  1
4933  0
4934  0
4935  0
4936  1
4937  0
4938  0
4939  0
4940  1
4941  0
4942  0
4943  1
4944  0
4945  1
4946  0
4947  0
4948  1
4949  2
4950  0
4951  0
4952  2
4953  1
4954  0
4955  0
4956  2
4957  1
4958  0
4959  0
4960  0
4961  0
4962  1
4963  1
4964  1
4965  0
4966  0
4967  1
4968  0
4969  0
4970  0
4971  1
4972  1
4973  0
4974  0
4975  0
4976  0
4977  0
4978  1
4979  1
4980  0
4981  0
4982  1
4983  0
4984  1
4985  1
4986  1
4987  0
4988  1
4989  0
4990  0
4991  0
4992  0
4993  0
4994  2
4995  0
4996  2
4997  1
4998  0
4999  0
5000  0
5001  1
5002  1
5003  0
5004  0
5005  2
5006  0
5007  0
5008  0
5009  0
5010  0
5011  0
5012  0
5013  0
5014  0
5015  1
5016  0
5017  0
5018  0
5019  0
5020  1
5021  0
5022  0
5023  1
5024  0
5025  0
5026  0
5027  1
5028  2
5029  0
5030  0
5031  0
5032  0
5033  1
5034  0
5035  1
5036  1
5037  1
5038  2
5039  0
5040  0
5041  0
5042  1
5043  1
5044  1
5045  0
5046  2
5047  1
5048  0
5049  1
5050  0
5051  0
5052  0
5053  0
5054  0
5055  0
5056  0
5057  0
5058  1
5059  1
5060  1
5061  1
5062  0
5063  0
5064  0
5065  0
5066  1
5067  0
5068  0
5069  0
5070  1
5071  2
5072  0
5073  1
5074  1
5075  0
5076  0
5077  0
5078  0
5079  1
5080  0
5081  1
5082  1
5083  0
5084  2
5085  0
5086  0
5087  0
5088  1
5089  1
5090  0
5091  0
5092  0
5093  1
5094  1
5095  1
5096  0
5097  2
5098  0
5099  1
5100  0
5101  0
5102  1
5103  1
5104  0
5105  2
5106  0
5107  0
5108  2
5109  0
5110  1
5111  0
5112  0
5113  0
5114  0
5115  2
5116  0
5117  2
5118  0
5119  0
5120  0
5121  2
5122  2
5123  0
5124  1
5125  0
5126  0
5127  3
5128  1
5129  1
5130  0
5131  1
5132  2
5133  2
5134  2
5135  2
5136  0
5137  0
5138  0
5139  3
5140  1
5141  1
5142  1
5143  0
5144  0
5145  1
5146  1
5147  1
5148  4
5149  2
5150  1
5151  0
5152  0
5153  0
5154  0
5155  1
5156  0
5157  0
5158  0
5159  1
5160  1
5161  0
5162  0
5163  0
5164  0
5165  0
5166  0
5167  0
5168  1
5169  0
5170  1
5171  1
5172  1
5173  1
5174  0
5175  0
5176  0
5177  1
5178  2
5179  1
5180  0
5181  1
5182  0
5183  0
5184  1
5185  0
5186  1
5187  0
5188  0
5189  0
5190  1
5191  2
5192  2
5193  0
5194  0
5195  0
5196  0
5197  1
5198  0
5199  1
5200  0
5201  1
5202  1
5203  1
5204  1
5205  2
5206  0
5207  0
5208  0
5209  0
5210  1
5211  0
5212  2
5213  0
5214  1
5215  0
5216  1
5217  1
5218  0
5219  0
5220  0
5221  2
5222  0
5223  0
5224  0
5225  0
5226  1
5227  0
5228  0
5229  0
5230  0
5231  2
5232  0
5233  0
5234  0
5235  0
5236  0
5237  1
5238  0
5239  0
5240  1
5241  2
5242  0
5243  1
5244  0
5245  0
5246  0
5247  1
5248  1
5249  0
5250  2
5251  0
5252  0
5253  1
5254  0
5255  1
5256  1
5257  0
5258  0
5259  1
5260  0
5261  0
5262  0
5263  1
5264  0
5265  2
5266  0
5267  0
5268  0
5269  2
5270  0
5271  0
5272  0
5273  1
5274  0
5275  0
5276  0
5277  0
5278  0
5279  1
5280  0
5281  1
5282  2
5283  0
5284  4
5285  0
5286  0
5287  0
5288  1
5289  0
5290  0
5291  0
5292  1
5293  0
5294  0
5295  0
5296  0
5297  0
5298  1
5299  1
5300  1
5301  1
5302  0
5303  1
5304  0
5305  0
5306  1
5307  1
5308  0
5309  1
5310  1
5311  0
5312  1
5313  0
5314  0
5315  0
5316  0
5317  1
5318  2
5319  1
5320  1
5321  0
5322  0
5323  0
5324  0
5325  1
5326  1
5327  2
5328  1
5329  0
5330  1
5331  0
5332  1
5333  0
5334  0
5335  0
5336  0
5337  1
5338  1
5339  1
5340  0
5341  0
5342  1
5343  1
5344  0
5345  0
5346  1
5347  0
5348  0
5349  0
5350  0
5351  0
5352  0
5353  2
5354  0
5355  0
5356  0
5357  1
5358  0
5359  1
5360  0
5361  2
5362  1
5363  0
5364  1
5365  0
5366  0
5367  0
5368  0
5369  0
5370  0
5371  0
5372  0
5373  1
5374  1
5375  0
5376  0
5377  0
5378  1
5379  1
5380  0
5381  0
5382  0
5383  0
5384  0
5385  0
5386  0
5387  0
5388  0
5389  1
5390  1
5391  0
5392  1
5393  0
5394  1
5395  0
5396  0
5397  1
5398  0
5399  0
5400  0
5401  0
5402  0
5403  1
5404  0
5405  1
5406  1
5407  1
5408  0
5409  0
5410  1
5411  1
5412  0
5413  0
5414  2
5415  0
5416  0
5417  0
5418  1
5419  0
5420  0
5421  1
5422  0
5423  0
5424  0
5425  1
5426  0
5427  0
5428  0
5429  0
5430  0
5431  1
5432  0
5433  1
5434  1
5435  0
5436  1
5437  0
5438  0
5439  0
5440  0
5441  0
5442  0
5443  0
5444  0
5445  1
5446  0
5447  1
5448  0
5449  0
5450  0
5451  0
5452  0
5453  0
5454  0
5455  1
5456  0
5457  0
5458  0
5459  0
5460  0
5461  1
5462  0
5463  0
5464  0
5465  0
5466  1
5467  1
5468  0
5469  0
5470  1
5471  1
5472  0
5473  0
5474  0
5475  0
5476  0
5477  0
5478  0
5479  0
5480  0
5481  0
5482  0
5483  0
5484  1
5485  0
5486  0
5487  0
5488  0
5489  1
5490  1
5491  0
5492  0
5493  0
5494  2
5495  0
5496  0
5497  0
5498  1
5499  0
5500  0
5501  0
5502  0
5503  1
5504  1
5505  0
5506  0
5507  0
5508  1
5509  0
5510  0
5511  1
5512  0
5513  0
5514  0
5515  1
5516  0
5517  0
5518  0
5519  1
5520  0
5521  0
5522  1
5523  0
5524  0
5525  0
5526  0
5527  0
5528  0
5529  0
5530  1
5531  1
5532  0
5533  0
5534  0
5535  0
5536  0
5537  1
5538  1
5539  1
5540  0
5541  0
5542  0
5543  1
5544  0
5545  0
5546  0
5547  1
5548  0
5549  0
5550  0
5551  1
5552  0
5553  0
5554  2
5555  0
5556  0
5557  0
5558  0
5559  0
5560  0
5561  0
5562  1
5563  0
5564  0
5565  0
5566  0
5567  0
5568  1
5569  1
5570  1
5571  0
5572  0
5573  0
5574  2
5575  0
5576  0
5577  0
5578  0
5579  0
5580  0
5581  1
5582  0
5583  0
5584  0
5585  0
5586  0
5587  0
5588  0
5589  0
5590  0
5591  0
5592  0
5593  0
5594  1
5595  0
5596  0
5597  0
5598  0
5599  1
5600  2
5601  0
5602  0
5603  0
5604  0
5605  0
5606  1
5607  0
5608  0
5609  0
5610  1
5611  0
5612  1
5613  0
5614  0
5615  1
5616  0
5617  0
5618  1
5619  1
5620  0
5621  0
5622  0
5623  0
5624  0
5625  0
5626  1
5627  0
5628  2
5629  0
5630  1
5631  2
5632  1
5633  0
5634  0
5635  0
5636  2
5637  1
5638  0
5639  0
5640  1
5641  1
5642  0
5643  0
5644  0
5645  0
5646  0
5647  0
5648  0
5649  0
5650  0
5651  1
5652  0
5653  0
5654  0
5655  0
5656  1
5657  0
5658  0
5659  0
5660  1
5661  2
5662  1
5663  1
5664  1
5665  1
5666  0
5667  1
5668  0
5669  1
5670  1
5671  0
5672  1
5673  1
5674  0
5675  0
5676  0
5677  0
5678  1
5679  1
5680  0
5681  0
5682  0
5683  0
5684  0
5685  0
5686  1
5687  0
5688  3
5689  1
5690  1
5691  0
5692  0
5693  0
5694  0
5695  1
5696  0
5697  1
5698  0
5699  0
5700  0
5701  1
5702  0
5703  1
5704  1
5705  0
5706  0
5707  0
5708  0
5709  0
5710  1
5711  0
5712  0
5713  0
5714  0
5715  2
5716  2
5717  0
5718  0
5719  0
5720  0
5721  1
5722  0
5723  0
5724  0
5725  1
5726  1
5727  1
5728  0
5729  0
5730  1
5731  0
5732  0
5733  1
5734  1
5735  0
5736  1
5737  0
5738  0
5739  2
5740  0
5741  1
5742  0
5743  3
5744  1
5745  1
5746  0
5747  0
5748  1
5749  0
5750  0
5751  0
5752  0
5753  0
5754  0
5755  0
5756  0
5757  0
5758  0
5759  1
5760  0
5761  0
5762  1
5763  0
5764  1
5765  0
5766  1
5767  0
5768  1
5769  2
5770  2
5771  1
5772  0
5773  0
5774  1
5775  0
5776  0
5777  0
5778  2
5779  1
5780  0
5781  0
5782  1
5783  2
5784  0
5785  0
5786  1
5787  0
5788  0
5789  0
5790  0
5791  0
5792  0
5793  1
5794  0
5795  0
5796  0
5797  0
5798  1
5799  1
5800  0
5801  0
5802  1
5803  1
5804  1
5805  1
5806  0
5807  0
5808  0
5809  1
5810  1
5811  0
5812  0
5813  0
5814  1
5815  0
5816  0
5817  0
5818  1
5819  0
5820  1
5821  1
5822  0
5823  0
5824  0
5825  0
5826  0
5827  0
5828  1
5829  0
5830  1
5831  0
5832  3
5833  3
5834  1
5835  0
5836  0
5837  1
5838  0
5839  0
5840  1
5841  1
5842  0
5843  0
5844  0
5845  0
5846  1
5847  0
5848  1
5849  1
5850  1
5851  2
5852  0
5853  0
5854  0
5855  0
5856  1
5857  0
5858  0
5859  0
5860  1
5861  1
5862  0
5863  0
5864  0
5865  0
5866  0
5867  0
5868  1
5869  0
5870  0
5871  0
5872  0
5873  0
5874  0
5875  0
5876  0
5877  1
5878  0
5879  0
5880  1
5881  0
5882  1
5883  0
5884  1
5885  0
5886  1
5887  1
5888  0
5889  0
5890  0
5891  0
5892  0
5893  0
5894  1
5895  0
5896  0
5897  0
5898  0
5899  0
5900  2
5901  0
5902  0
5903  1
5904  0
5905  0
5906  0
5907  0
5908  0
5909  0
5910  0
5911  0
5912  0
5913  0
5914  1
5915  0
5916  1
5917  0
5918  1
5919  0
5920  0
5921  0
5922  0
5923  3
5924  4
5925  1
5926  1
5927  1
5928  2
5929  1
5930  0
5931  2
5932  0
5933  0
5934  0
5935  0
5936  0
5937  1
5938  0
5939  0
5940  0
5941  0
5942  1
5943  0
5944  0
5945  0
5946  2
5947  0
5948  1
5949  0
5950  0
5951  1
5952  0
5953  0
5954  1
5955  0
5956  1
5957  0
5958  0
5959  0
5960  1
5961  0
5962  1
5963  0
5964  0
5965  2
5966  0
5967  0
5968  2
5969  0
5970  0
5971  0
5972  1
5973  0
5974  1
5975  0
5976  0
5977  1
5978  0
5979  0
5980  0
5981  0
5982  0
5983  0
5984  0
5985  0
5986  2
5987  0
5988  0
5989  0
5990  0
5991  1
5992  1
5993  0
5994  0
5995  0
5996  0
5997  0
5998  2
5999  0
6000  0
6001  0
6002  0
6003  2
6004  0
6005  0
6006  0
6007  1
6008  0
6009  1
6010  0
6011  1
6012  0
6013  0
6014  1
6015  2
6016  0
6017  2
6018  0
6019  1
6020  0
6021  0
6022  3
6023  0
6024  0
6025  1
6026  0
6027  1
6028  0
6029  2
6030  4
6031  0
6032  0
6033  0
6034  0
6035  1
6036  0
6037  0
6038  0
6039  0
6040  0
6041  1
6042  0
6043  1
6044  0
6045  0
6046  0
6047  0
6048  0
6049  1
6050  1
6051  1
6052  1
6053  0
6054  0
6055  0
6056  0
6057  1
6058  0
6059  2
6060  2
6061  0
6062  1
6063  1
6064  0
6065  0
6066  0
6067  0
6068  1
6069  0
6070  1
6071  0
6072  0
6073  0
6074  0
6075  1
6076  0
6077  0
6078  0
6079  0
6080  0
6081  0
6082  0
6083  1
6084  0
6085  0
6086  0
6087  0
6088  0
6089  0
6090  1
6091  1
6092  0
6093  0
6094  0
6095  0
6096  0
6097  1
6098  0
6099  0
6100  0
6101  1
6102  0
6103  0
6104  2
6105  0
6106  0
6107  0
6108  0
6109  0
6110  0
6111  0
6112  0
6113  1
6114  0
6115  0
6116  0
6117  0
6118  0
6119  0
6120  0
6121  1
6122  0
6123  0
6124  1
6125  0
6126  2
6127  1
6128  1
6129  1
6130  1
6131  0
6132  0
6133  1
6134  1
6135  1
6136  0
6137  0
6138  0
6139  1
6140  1
6141  1
6142  0
6143  1
6144  0
6145  0
6146  0
6147  1
6148  0
6149  1
6150  0
6151  0
6152  0
6153  0
6154  1
6155  1
6156  0
6157  0
6158  1
6159  1
6160  1
6161  0
6162  0
6163  1
6164  1
6165  0
6166  0
6167  0
6168  0
6169  0
6170  0
6171  0
6172  0
6173  0
6174  0
6175  0
6176  1
6177  2
6178  0
6179  0
6180  0
6181  0
6182  0
6183  0
6184  0
6185  0
6186  0
6187  0
6188  0
6189  0
6190  0
6191  1
6192  1
6193  0
6194  2
6195  1
6196  0
6197  0
6198  0
6199  1
6200  1
6201  0
6202  1
6203  0
6204  1
6205  1
6206  0
6207  1
6208  1
6209  1
6210  1
6211  0
6212  0
6213  0
6214  0
6215  1
6216  1
6217  0
6218  0
6219  0
6220  0
6221  0
6222  0
6223  0
6224  1
6225  0
6226  1
6227  0
6228  0
6229  0
6230  0
6231  0
6232  0
6233  1
6234  0
6235  0
6236  0
6237  1
6238  0
6239  1
6240  0
6241  1
6242  0
6243  1
6244  1
6245  1
6246  0
6247  2
6248  1
6249  0
6250  2
6251  1
6252  0
6253  0
6254  2
6255  1
6256  0
6257  1
6258  0
6259  0
6260  0
6261  0
6262  0
6263  2
6264  0
6265  0
6266  1
6267  0
6268  0
6269  0
6270  0
6271  1
6272  0
6273  0
6274  0
6275  2
6276  0
6277  0
6278  1
6279  0
6280  1
6281  3
6282  1
6283  1
6284  1
6285  0
6286  0
6287  0
6288  0
6289  0
6290  0
6291  0
6292  1
6293  0
6294  0
6295  0
6296  1
6297  1
6298  1
6299  0
6300  1
6301  0
6302  0
6303  0
6304  1
6305  0
6306  0
6307  1
6308  0
6309  1
6310  0
6311  0
6312  0
6313  0
6314  1
6315  0
6316  2
6317  0
6318  0
6319  0
6320  0
6321  0
6322  0
6323  0
6324  0
6325  0
6326  0
6327  2
6328  1
6329  2
6330  0
6331  0
6332  0
6333  0
6334  0
6335  1
6336  1
6337  0
6338  2
6339  0
6340  1
6341  1
6342  0
6343  0
6344  0
6345  0
6346  0
6347  2
6348  0
6349  1
6350  2
6351  0
6352  0
6353  0
6354  0
6355  0
6356  0
6357  2
6358  0
6359  0
6360  1
6361  0
6362  0
6363  0
6364  1
6365  2
6366  0
6367  1
6368  1
6369  0
6370  2
6371  0
6372  0
6373  0
6374  0
6375  1
6376  0
6377  0
6378  0
6379  1
6380  1
6381  1
6382  1
6383  0
6384  2
6385  0
6386  0
6387  0
6388  0
6389  0
6390  1
6391  1
6392  1
6393  1
6394  0
6395  0
6396  1
6397  0
6398  1
6399  0
6400  0
6401  1
6402  1
6403  1
6404  0
6405  0
6406  1
6407  0
6408  1
6409  0
6410  1
6411  0
6412  0
6413  0
6414  0
6415  2
6416  2
6417  1
6418  3
6419  0
6420  0
6421  0
6422  1
6423  1
6424  0
6425  0
6426  0
6427  0
6428  0
6429  0
6430  0
6431  0
6432  1
6433  0
6434  1
6435  1
6436  1
6437  2
6438  0
6439  1
6440  1
6441  0
6442  0
6443  0
6444  1
6445  0
6446  0
6447  1
6448  0
6449  0
6450  0
6451  0
6452  1
6453  1
6454  0
6455  0
6456  2
6457  0
6458  0
6459  0
6460  1
6461  0
6462  0
6463  1
6464  0
6465  1
6466  0
6467  2
6468  0
6469  0
6470  0
6471  0
6472  0
6473  0
6474  0
6475  0
6476  0
6477  1
6478  0
6479  0
6480  0
6481  0
6482  0
6483  1
6484  0
6485  0
6486  0
6487  0
6488  1
6489  0
6490  0
6491  0
6492  0
6493  0
6494  0
6495  0
6496  0
6497  1
6498  0
6499  0
6500  0
6501  0
6502  1
6503  1
6504  0
6505  0
6506  2
6507  0
6508  0
6509  1
6510  0
6511  1
6512  0
6513  0
6514  0
6515  0
6516  0
6517  0
6518  1
6519  2
6520  0
6521  0
6522  1
6523  0
6524  0
6525  0
6526  1
6527  0
6528  0
6529  0
6530  1
6531  0
6532  0
6533  0
6534  0
6535  1
6536  0
6537  1
6538  0
6539  1
6540  0
6541  0
6542  0
6543  0
6544  1
6545  0
6546  0
6547  1
6548  0
6549  0
6550  1
6551  0
6552  1
6553  0
6554  0
6555  0
6556  0
6557  0
6558  0
6559  0
6560  0
6561  0
6562  2
6563  0
6564  2
6565  0
6566  1
6567  0
6568  1
6569  0
6570  0
6571  0
6572  1
6573  2
6574  0
6575  0
6576  0
6577  0
6578  0
6579  0
6580  0
6581  1
6582  0
6583  1
6584  0
6585  0
6586  0
6587  0
6588  0
6589  0
6590  0
6591  1
6592  0
6593  0
6594  0
6595  0
6596  0
6597  0
6598  0
6599  0
6600  3
6601  0
6602  0
6603  0
6604  0
6605  0
6606  0
6607  2
6608  0
6609  0
6610  0
6611  0
6612  0
6613  1
6614  0
6615  0
6616  0
6617  0
6618  0
6619  1
6620  0
6621  0
6622  0
6623  0
6624  0
6625  0
6626  0
6627  0
6628  0
6629  1
6630  0
6631  0
6632  0
6633  0
6634  0
6635  1
6636  0
6637  0
6638  1
6639  1
6640  0
6641  0
6642  1
6643  0
6644  0
6645  1
6646  0
6647  1
6648  0
6649  0
6650  0
6651  0
6652  0
6653  1
6654  0
6655  1
6656  0
6657  0
6658  0
6659  0
6660  0
6661  1
6662  0
6663  1
6664  1
6665  0
6666  1
6667  0
6668  0
6669  0
6670  0
6671  0
6672  0
6673  0
6674  1
6675  0
6676  1
6677  1
6678  0
6679  0
6680  1
6681  0
6682  0
6683  0
6684  0
6685  1
6686  0
6687  1
6688  0
6689  0
6690  0
6691  0
6692  0
6693  0
6694  1
6695  1
6696  0
6697  0
6698  0
6699  0
6700  1
6701  1
6702  0
6703  0
6704  1
6705  0
6706  2
6707  1
6708  0
6709  0
6710  0
6711  0
6712  0
6713  0
6714  0
6715  0
6716  0
6717  0
6718  0
6719  0
6720  0
6721  0
6722  2
6723  0
6724  0
6725  0
6726  0
6727  0
6728  0
6729  0
6730  2
6731  1
6732  1
6733  0
6734  0
6735  0
6736  1
6737  0
6738  0
6739  0
6740  0
6741  0
6742  0
6743  0
6744  0
6745  1
6746  1
6747  0
6748  0
6749  4
6750  0
6751  0
6752  0
6753  1
6754  1
6755  1
6756  0
6757  0
6758  1
6759  1
6760  0
6761  0
6762  2
6763  0
6764  1
6765  0
6766  0
6767  0
6768  0
6769  1
6770  0
6771  0
6772  0
6773  0
6774  0
6775  1
6776  0
6777  0
6778  0
6779  0
6780  0
6781  0
6782  1
6783  1
6784  0
6785  1
6786  1
6787  1
6788  2
6789  0
6790  1
6791  0
6792  0
6793  0
6794  0
6795  1
6796  0
6797  0
6798  0
6799  0
6800  0
6801  0
6802  1
6803  1
6804  0
6805  0
6806  0
6807  0
6808  0
6809  1
6810  2
6811  0
6812  0
6813  0
6814  0
6815  0
6816  1
6817  0
6818  0
6819  0
6820  0
6821  0
6822  0
6823  1
6824  0
6825  1
6826  0
6827  0
6828  0
6829  0
6830  0
6831  0
6832  0
6833  0
6834  0
6835  2
6836  0
6837  0
6838  1
6839  0
6840  0
6841  0
6842  0
6843  0
6844  0
6845  2
6846  0
6847  0
6848  0
6849  0
6850  0
6851  0
6852  0
6853  0
6854  0
6855  1
6856  0
6857  0
6858  2
6859  0
6860  0
6861  0
6862  0
6863  0
6864  0
6865  1
6866  0
6867  0
6868  0
6869  1
6870  0
6871  0
6872  0
6873  1
6874  0
6875  1
6876  0
6877  0
6878  0
6879  0
6880  0
6881  0
6882  0
6883  0
6884  0
6885  0
6886  0
6887  0
6888  1
6889  0
6890  0
6891  0
6892  1
6893  0
6894  0
6895  0
6896  1
6897  1
6898  0
6899  0
6900  0
6901  1
6902  0
6903  0
6904  1
6905  0
6906  1
6907  0
6908  0
6909  1
6910  0
6911  2
6912  0
6913  1
6914  0
6915  0
6916  0
6917  1
6918  1
6919  0
6920  0
6921  0
6922  0
6923  0
6924  1
6925  0
6926  1
6927  0
6928  0
6929  0
6930  0
6931  0
6932  0
6933  0
6934  0
6935  0
6936  0
6937  0
6938  0
6939  0
6940  0
6941  0
6942  0
6943  0
6944  0
6945  0
6946  0
6947  0
6948  0
6949  0
6950  0
6951  0
6952  0
6953  0
6954  1
6955  0
6956  0
6957  1
6958  0
6959  1
6960  0
6961  0
6962  0
6963  0
6964  0
6965  1
6966  0
6967  0
6968  0
6969  0
6970  0
6971  0
6972  0
6973  0
6974  0
6975  0
6976  0
6977  0
6978  1
6979  0
6980  0
6981  1
6982  0
6983  0
6984  0
6985  0
6986  0
6987  0
6988  0
6989  0
6990  0
6991  0
6992  0
6993  1
6994  0
6995  1
6996  0
6997  1
6998  0
6999  0
7000  0
7001  0
7002  0
7003  0
7004  0
7005  1
7006  0
7007  0
7008  0
7009  0
7010  0
7011  0
7012  0
7013  0
7014  1
7015  0
7016  0
7017  0
7018  1
7019  0
7020  0
7021  0
7022  0
7023  0
7024  0
7025  0
7026  0
7027  0
7028  0
7029  0
7030  0
7031  0
7032  0
7033  0
7034  1
7035  0
7036  1
7037  0
7038  1
7039  0
7040  0
7041  0
7042  0
7043  0
7044  0
7045  0
7046  0
7047  2
7048  0
7049  1
7050  0
7051  0
7052  0
7053  0
7054  0
7055  0
7056  0
7057  0
7058  0
7059  0
7060  0
7061  0
7062  0
7063  0
7064  0
7065  1
7066  0
7067  0
7068  1
7069  0
7070  0
7071  0
7072  0
7073  0
7074  0
7075  0
7076  0
7077  0
7078  0
7079  0
7080  0
7081  1
7082  0
7083  1
7084  0
7085  0
7086  0
7087  0
7088  0
7089  0
7090  1
7091  0
7092  0
7093  0
7094  1
7095  0
7096  0
7097  0
7098  1
7099  0
7100  0
7101  0
7102  0
7103  1
7104  0
7105  0
7106  0
7107  1
7108  0
7109  0
7110  0
7111  0
7112  1
7113  0
7114  0
7115  0
7116  0
7117  0
7118  0
7119  0
7120  0
7121  0
7122  0
7123  1
7124  1
7125  1
7126  0
7127  0
7128  0
7129  1
7130  0
7131  1
7132  0
7133  0
7134  0
7135  0
7136  0
7137  0
7138  0
7139  0
7140  0
7141  0
7142  0
7143  0
7144  0
7145  0
7146  1
7147  0
7148  1
7149  0
7150  0
7151  0
7152  0
7153  0
7154  0
7155  0
7156  0
7157  0
7158  0
7159  0
7160  1
7161  0
7162  0
7163  0
7164  0
7165  0
7166  0
7167  1
7168  1
7169  0
7170  1
7171  1
7172  0
7173  1
7174  1
7175  0
7176  0
7177  0
7178  0
7179  1
7180  0
7181  0
7182  0
7183  0
7184  0
7185  1
7186  1
7187  0
7188  0
7189  1
7190  0
7191  0
7192  0
7193  1
7194  0
7195  1
7196  1
7197  0
7198  0
7199  1
7200  0
7201  0
7202  0
7203  0
7204  1
7205  0
7206  0
7207  0
7208  0
7209  0
7210  1
7211  0
7212  0
7213  0
7214  0
7215  0
7216  0
7217  0
7218  1
7219  0
7220  0
7221  0
7222  0
7223  0
7224  0
7225  0
7226  0
7227  0
7228  0
7229  0
7230  1
7231  0
7232  0
7233  0
7234  0
7235  0
7236  0
7237  0
7238  0
7239  0
7240  0
7241  1
7242  0
7243  0
7244  0
7245  1
7246  0
7247  0
7248  0
7249  0
7250  0
7251  0
7252  0
7253  0
7254  0
7255  0
7256  0
7257  1
7258  1
7259  1
7260  0
7261  0
7262  1
7263  0
7264  0
7265  0
7266  0
7267  0
7268  0
7269  0
7270  0
7271  1
7272  1
7273  0
7274  0
7275  0
7276  0
7277  0
7278  0
7279  0
7280  1
7281  2
7282  0
7283  1
7284  0
7285  1
7286  0
7287  0
7288  0
7289  0
7290  0
7291  0
7292  0
7293  0
7294  0
7295  0
7296  2
7297  0
7298  0
7299  0
7300  0
7301  0
7302  0
7303  0
7304  0
7305  0
7306  0
7307  0
7308  0
7309  0
7310  0
7311  0
7312  1
7313  1
7314  1
7315  0
7316  0
7317  0
7318  1
7319  0
7320  0
7321  0
7322  2
7323  0
7324  0
7325  0
7326  0
7327  0
7328  0
7329  0
7330  0
7331  0
7332  0
7333  0
7334  0
7335  0
7336  1
7337  0
7338  0
7339  0
7340  0
7341  0
7342  0
7343  0
7344  1
7345  0
7346  0
7347  0
7348  1
7349  0
7350  1
7351  0
7352  0
7353  0
7354  0
7355  0
7356  0
7357  0
7358  0
7359  0
7360  0
7361  0
7362  0
7363  0
7364  1
7365  0
7366  0
7367  0
7368  0
7369  1
7370  1
7371  0
7372  0
7373  0
7374  1
7375  0
7376  0
7377  0
7378  0
7379  0
7380  0
7381  0
7382  1
7383  0
7384  0
7385  0
7386  0
7387  0
7388  0
7389  0
7390  0
7391  0
7392  0
7393  0
7394  1
7395  0
7396  0
7397  0
7398  0
7399  0
7400  0
7401  0
7402  0
7403  0
7404  1
7405  0
7406  0
7407  0
7408  0
7409  0
7410  0
7411  0
7412  1
7413  0
7414  0
7415  0
7416  1
7417  0
7418  0
7419  0
7420  0
7421  0
7422  1
7423  0
7424  1
7425  1
7426  0
7427  0
7428  0
7429  0
7430  0
7431  1
7432  0
7433  0
7434  0
7435  0
7436  0
7437  1
7438  0
7439  0
7440  0
7441  0
7442  0
7443  0
7444  0
7445  0
7446  1
7447  0
7448  0
7449  0
7450  0
7451  0
7452  0
7453  0
7454  0
7455  0
7456  0
7457  0
7458  0
7459  0
7460  1
7461  0
7462  0
7463  0
7464  0
7465  0
7466  1
7467  1
7468  0
7469  0
7470  0
7471  0
7472  1
7473  0
7474  0
7475  2
7476  0
7477  0
7478  0
7479  1
7480  0
7481  0
7482  0
7483  1
7484  0
7485  0
7486  0
7487  0
7488  1
7489  0
7490  0
7491  0
7492  0
7493  0
7494  1
7495  0
7496  0
7497  0
7498  0
7499  0
7500  0
7501  0
7502  0
7503  0
7504  0
7505  0
7506  0
7507  0
7508  0
7509  1
7510  0
7511  0
7512  0
7513  0
7514  0
7515  0
7516  0
7517  1
7518  0
7519  0
7520  0
7521  0
7522  0
7523  1
7524  0
7525  1
7526  0
7527  0
7528  0
7529  0
7530  0
7531  1
7532  1
7533  1
7534  0
7535  0
7536  0
7537  0
7538  0
7539  1
7540  0
7541  0
7542  0
7543  0
7544  0
7545  0
7546  0
7547  0
7548  0
7549  0
7550  0
7551  0
7552  0
7553  0
7554  0
7555  0
7556  1
7557  0
7558  0
7559  0
7560  0
7561  0
7562  0
7563  0
7564  0
7565  0
7566  0
7567  0
7568  0
7569  0
7570  0
7571  0
7572  0
7573  0
7574  0
7575  0
7576  0
7577  0
7578  0
7579  0
7580  0
7581  0
7582  1
7583  0
7584  0
7585  0
7586  0
7587  0
7588  0
7589  0
7590  0
7591  0
7592  1
7593  0
7594  0
7595  0
7596  0
7597  0
7598  0
7599  1
7600  0
7601  0
7602  0
7603  0
7604  0
7605  0
7606  0
7607  0
7608  0
7609  0
7610  0
7611  0
7612  0
7613  0
7614  0
7615  0
7616  0
7617  0
7618  0
7619  1
7620  0
7621  0
7622  1
7623  0
7624  0
7625  1
7626  0
7627  0
7628  0
7629  0
7630  0
7631  0
7632  0
7633  0
7634  2
7635  0
7636  0
7637  0
7638  0
7639  0
7640  1
7641  0
7642  1
7643  0
7644  0
7645  0
7646  0
7647  0
7648  0
7649  0
7650  1
7651  0
7652  1
7653  0
7654  0
7655  0
7656  0
7657  0
7658  0
7659  0
7660  1
7661  0
7662  1
7663  0
7664  0
7665  0
7666  0
7667  0
7668  1
7669  2
7670  0
7671  0
7672  0
7673  0
7674  1
7675  0
7676  1
7677  1
7678  0
7679  2
7680  4
7681  4
7682  3
7683  8
7684  7
7685  6
7686  13
7687  11
7688  4
7689  7
7690  3
7691  2
7692  2
7693  4
7694  3
7695  0
7696  2
7697  0
7698  0
7699  0
7700  1
7701  0
7702  0
7703  0
7704  0
7705  0
7706  0
7707  0
7708  0
7709  0
7710  0
7711  0
7712  0
7713  0
7714  0
7715  0
7716  0
7717  0
7718  0
7719  1
7720  0
7721  0
7722  0
7723  0
7724  0
7725  0
7726  0
7727  0
7728  0
7729  1
7730  0
7731  1
7732  0
7733  0
7734  0
7735  0
7736  0
7737  0
7738  0
7739  1
7740  0
7741  0
7742  0
7743  0
7744  0
7745  0
7746  0
7747  0
7748  0
7749  0
7750  0
7751  0
7752  0
7753  0
7754  0
7755  0
7756  0
7757  0
7758  0
7759  0
7760  0
7761  0
7762  0
7763  0
7764  0
7765  0
7766  0
7767  0
7768  0
7769  0
7770  0
7771  0
7772  1
7773  0
7774  0
7775  0
7776  0
7777  0
7778  0
7779  0
7780  1
7781  0
7782  0
7783  0
7784  0
7785  0
7786  1
7787  0
7788  0
7789  0
7790  0
7791  0
7792  0
7793  0
7794  0
7795  0
7796  0
7797  0
7798  0
7799  1
7800  0
7801  0
7802  0
7803  0
7804  0
7805  0
7806  0
7807  0
7808  0
7809  0
7810  0
7811  0
7812  0
7813  0
7814  1
7815  0
7816  0
7817  0
7818  0
7819  0
7820  1
7821  0
7822  1
7823  0
7824  0
7825  0
7826  0
7827  0
7828  1
7829  0
7830  0
7831  0
7832  0
7833  0
7834  0
7835  0
7836  0
7837  0
7838  0
7839  0
7840  0
7841  0
7842  0
7843  0
7844  0
7845  1
7846  0
7847  0
7848  1
7849  0
7850  0
7851  0
7852  0
7853  1
7854  0
7855  1
7856  1
7857  0
7858  0
7859  0
7860  0
7861  1
7862  0
7863  0
7864  0
7865  0
7866  0
7867  0
7868  0
7869  0
7870  1
7871  0
7872  0
7873  0
7874  1
7875  0
7876  0
7877  0
7878  0
7879  0
7880  0
7881  0
7882  0
7883  0
7884  0
7885  0
7886  0
7887  1
7888  0
7889  0
7890  0
7891  0
7892  1
7893  0
7894  1
7895  0
7896  1
7897  0
7898  0
7899  1
7900  0
7901  0
7902  0
7903  0
7904  0
7905  0
7906  0
7907  0
7908  0
7909  0
7910  0
7911  0
7912  0
7913  0
7914  0
7915  0
7916  0
7917  0
7918  0
7919  0
7920  0
7921  1
7922  0
7923  0
7924  0
7925  0
7926  0
7927  0
7928  1
7929  0
7930  0
7931  0
7932  0
7933  0
7934  1
7935  1
7936  1
7937  0
7938  0
7939  0
7940  0
7941  0
7942  0
7943  0
7944  0
7945  0
7946  0
7947  0
7948  0
7949  1
7950  0
7951  1
7952  0
7953  1
7954  0
7955  0
7956  0
7957  0
7958  0
7959  0
7960  0
7961  0
7962  0
7963  1
7964  0
7965  0
7966  0
7967  0
7968  0
7969  0
7970  0
7971  0
7972  0
7973  0
7974  0
7975  0
7976  0
7977  0
7978  0
7979  0
7980  0
7981  0
7982  0
7983  0
7984  0
7985  0
7986  0
7987  1
7988  0
7989  1
7990  0
7991  0
7992  0
7993  0
7994  0
7995  0
7996  0
7997  0
7998  0
7999  0
8000  0
8001  0
8002  0
8003  0
8004  0
8005  0
8006  2
8007  0
8008  0
8009  0
8010  0
8011  0
8012  0
8013  1
8014  0
8015  0
8016  0
8017  0
8018  0
8019  1
8020  0
8021  0
8022  1
8023  0
8024  0
8025  0
8026  0
8027  0
8028  0
8029  0
8030  0
8031  0
8032  0
8033  0
8034  0
8035  0
8036  0
8037  0
8038  0
8039  0
8040  0
8041  0
8042  0
8043  0
8044  1
8045  0
8046  0
8047  0
8048  1
8049  0
8050  0
8051  1
8052  0
8053  0
8054  0
8055  0
8056  0
8057  0
8058  1
8059  0
8060  0
8061  0
8062  0
8063  0
8064  0
8065  0
8066  0
8067  0
8068  0
8069  0
8070  0
8071  0
8072  1
8073  0
8074  1
8075  0
8076  0
8077  0
8078  0
8079  0
8080  2
8081  0
8082  0
8083  0
8084  0
8085  0
8086  0
8087  0
8088  0
8089  0
8090  0
8091  0
8092  0
8093  0
8094  0
8095  0
8096  0
8097  1
8098  0
8099  0
8100  0
8101  0
8102  0
8103  0
8104  1
8105  0
8106  0
8107  0
8108  0
8109  0
8110  0
8111  0
8112  0
8113  0
8114  0
8115  0
8116  0
8117  0
8118  0
8119  0
8120  0
8121  0
8122  0
8123  0
8124  0
8125  0
8126  1
8127  0
8128  0
8129  0
8130  0
8131  0
8132  0
8133  0
8134  0
8135  0
8136  0
8137  1
8138  0
8139  0
8140  0
8141  0
8142  0
8143  0
8144  0
8145  0
8146  0
8147  0
8148  0
8149  0
8150  0
8151  1
8152  0
8153  0
8154  0
8155  0
8156  0
8157  0
8158  0
8159  0
8160  0
8161  0
8162  0
8163  0
8164  0
8165  0
8166  0
8167  0
8168  0
8169  0
8170  0
8171  0
8172  0
8173  0
8174  0
8175  0
8176  0
8177  0
8178  0
8179  0
8180  0
8181  0
8182  1
8183  0
8184  0
8185  0
8186  0
8187  0
8188  0
8189  0
8190  0
8191  0
