0  0
1  0
2  0
3  0
4  0
5  0
6  0
7  0
8  0
9  0
10  0
11  0
12  0
13  0
14  0
15  0
16  0
17  0
18  0
19  0
20  0
21  0
22  0
23  0
24  0
25  0
26  0
27  0
28  0
29  0
30  0
31  0
32  0
33  0
34  0
35  0
36  0
37  0
38  0
39  0
40  0
41  0
42  0
43  0
44  0
45  0
46  0
47  0
48  0
49  0
50  0
51  0
52  0
53  0
54  0
55  0
56  0
57  0
58  0
59  0
60  0
61  0
62  0
63  0
64  0
65  0
66  0
67  0
68  0
69  0
70  0
71  0
72  0
73  0
74  0
75  0
76  0
77  0
78  0
79  0
80  0
81  0
82  0
83  0
84  0
85  0
86  0
87  0
88  0
89  0
90  0
91  0
92  0
93  0
94  0
95  0
96  0
97  0
98  0
99  0
100  0
101  0
102  0
103  0
104  0
105  0
106  0
107  0
108  0
109  0
110  0
111  0
112  0
113  0
114  0
115  0
116  0
117  0
118  0
119  0
120  0
121  0
122  0
123  0
124  0
125  0
126  0
127  0
128  0
129  0
130  0
131  0
132  0
133  0
134  0
135  0
136  0
137  0
138  0
139  0
140  0
141  0
142  0
143  0
144  0
145  0
146  0
147  0
148  0
149  0
150  0
151  0
152  0
153  0
154  0
155  0
156  0
157  0
158  0
159  0
160  0
161  0
162  0
163  0
164  0
165  0
166  0
167  0
168  0
169  0
170  0
171  0
172  0
173  0
174  0
175  0
176  0
177  0
178  0
179  0
180  0
181  0
182  0
183  0
184  0
185  0
186  0
187  0
188  0
189  0
190  0
191  0
192  0
193  0
194  0
195  0
196  0
197  0
198  0
199  0
200  0
201  0
202  0
203  0
204  0
205  0
206  0
207  0
208  0
209  0
210  0
211  0
212  0
213  0
214  0
215  0
216  0
217  0
218  0
219  0
220  0
221  0
222  0
223  0
224  0
225  0
226  0
227  0
228  0
229  0
230  0
231  0
232  0
233  0
234  0
235  0
236  0
237  0
238  0
239  0
240  0
241  0
242  0
243  0
244  0
245  0
246  0
247  0
248  0
249  0
250  0
251  0
252  0
253  0
254  0
255  1
256  0
257  0
258  0
259  0
260  0
261  0
262  0
263  0
264  0
265  1
266  0
267  0
268  1
269  1
270  1
271  2
272  4
273  3
274  3
275  0
276  3
277  4
278  3
279  2
280  3
281  5
282  6
283  7
284  6
285  6
286  6
287  6
288  2
289  6
290  7
291  4
292  8
293  7
294  5
295  2
296  7
297  5
298  6
299  3
300  2
301  3
302  9
303  2
304  5
305  9
306  5
307  8
308  6
309  7
310  10
311  9
312  4
313  13
314  5
315  6
316  3
317  11
318  5
319  9
320  6
321  8
322  5
323  6
324  9
325  10
326  11
327  8
328  9
329  10
330  10
331  8
332  15
333  13
334  11
335  12
336  14
337  11
338  11
339  4
340  8
341  13
342  8
343  10
344  10
345  12
346  3
347  8
348  8
349  9
350  8
351  4
352  8
353  14
354  10
355  7
356  9
357  11
358  7
359  8
360  12
361  11
362  10
363  9
364  8
365  7
366  8
367  9
368  9
369  7
370  12
371  7
372  6
373  10
374  10
375  12
376  13
377  9
378  7
379  7
380  7
381  12
382  12
383  8
384  10
385  9
386  6
387  6
388  10
389  12
390  23
391  13
392  14
393  10
394  3
395  7
396  8
397  12
398  6
399  10
400  9
401  12
402  10
403  11
404  8
405  8
406  11
407  14
408  8
409  15
410  11
411  11
412  10
413  6
414  14
415  13
416  6
417  8
418  14
419  16
420  12
421  12
422  12
423  14
424  9
425  15
426  16
427  6
428  10
429  15
430  8
431  6
432  13
433  10
434  7
435  4
436  10
437  10
438  9
439  11
440  12
441  11
442  13
443  13
444  12
445  8
446  15
447  19
448  9
449  14
450  8
451  12
452  12
453  14
454  8
455  12
456  7
457  13
458  9
459  15
460  11
461  9
462  10
463  7
464  11
465  9
466  10
467  18
468  15
469  10
470  9
471  3
472  11
473  8
474  11
475  14
476  16
477  11
478  11
479  15
480  15
481  12
482  10
483  15
484  6
485  10
486  8
487  7
488  15
489  9
490  14
491  8
492  12
493  11
494  6
495  8
496  14
497  12
498  11
499  16
500  12
501  15
502  12
503  8
504  14
505  9
506  7
507  23
508  13
509  10
510  8
511  13
512  16
513  17
514  16
515  12
516  21
517  10
518  8
519  16
520  16
521  11
522  12
523  17
524  18
525  14
526  17
527  13
528  12
529  13
530  14
531  16
532  18
533  10
534  7
535  14
536  14
537  15
538  3
539  18
540  11
541  9
542  11
543  11
544  13
545  7
546  21
547  15
548  8
549  13
550  9
551  17
552  10
553  15
554  18
555  13
556  13
557  14
558  15
559  15
560  13
561  10
562  12
563  15
564  14
565  21
566  7
567  17
568  11
569  12
570  16
571  14
572  11
573  13
574  14
575  16
576  20
577  9
578  18
579  13
580  26
581  16
582  17
583  10
584  15
585  12
586  16
587  14
588  15
589  17
590  22
591  13
592  6
593  12
594  16
595  17
596  14
597  19
598  17
599  17
600  12
601  21
602  18
603  15
604  16
605  16
606  11
607  18
608  14
609  9
610  20
611  13
612  14
613  16
614  21
615  16
616  20
617  12
618  15
619  16
620  16
621  20
622  13
623  19
624  18
625  15
626  12
627  17
628  18
629  11
630  16
631  11
632  9
633  16
634  8
635  9
636  14
637  13
638  13
639  16
640  18
641  15
642  15
643  16
644  13
645  18
646  12
647  16
648  11
649  17
650  22
651  11
652  19
653  15
654  16
655  15
656  19
657  10
658  18
659  12
660  19
661  17
662  14
663  8
664  18
665  17
666  20
667  24
668  9
669  13
670  18
671  12
672  16
673  13
674  18
675  8
676  13
677  26
678  16
679  15
680  21
681  15
682  11
683  13
684  14
685  14
686  17
687  19
688  13
689  15
690  18
691  15
692  9
693  23
694  11
695  16
696  12
697  20
698  14
699  17
700  14
701  17
702  15
703  11
704  18
705  15
706  11
707  16
708  21
709  14
710  18
711  16
712  12
713  14
714  15
715  7
716  9
717  12
718  16
719  10
720  11
721  14
722  17
723  16
724  14
725  17
726  19
727  17
728  9
729  19
730  5
731  17
732  19
733  13
734  10
735  8
736  16
737  16
738  16
739  15
740  12
741  15
742  15
743  17
744  18
745  19
746  21
747  14
748  16
749  13
750  18
751  12
752  22
753  15
754  11
755  17
756  9
757  11
758  12
759  16
760  19
761  14
762  17
763  19
764  12
765  20
766  17
767  19
768  13
769  14
770  15
771  17
772  13
773  13
774  17
775  15
776  13
777  16
778  10
779  11
780  13
781  14
782  7
783  20
784  11
785  13
786  13
787  12
788  18
789  14
790  10
791  13
792  19
793  8
794  13
795  15
796  13
797  13
798  19
799  13
800  17
801  8
802  14
803  14
804  16
805  8
806  10
807  10
808  17
809  22
810  10
811  14
812  15
813  15
814  16
815  12
816  16
817  20
818  20
819  16
820  12
821  13
822  8
823  11
824  17
825  10
826  13
827  10
828  16
829  15
830  9
831  15
832  18
833  12
834  12
835  12
836  19
837  11
838  14
839  16
840  16
841  19
842  9
843  18
844  11
845  13
846  14
847  5
848  16
849  16
850  15
851  17
852  13
853  13
854  12
855  9
856  15
857  12
858  16
859  15
860  16
861  11
862  14
863  17
864  11
865  18
866  14
867  16
868  13
869  15
870  13
871  13
872  12
873  12
874  8
875  12
876  14
877  10
878  14
879  13
880  13
881  16
882  12
883  11
884  13
885  15
886  12
887  11
888  12
889  14
890  15
891  15
892  17
893  14
894  14
895  11
896  11
897  13
898  10
899  12
900  13
901  14
902  12
903  10
904  8
905  15
906  8
907  10
908  15
909  8
910  10
911  13
912  21
913  21
914  13
915  14
916  16
917  10
918  13
919  16
920  11
921  13
922  17
923  6
924  11
925  9
926  8
927  9
928  10
929  15
930  13
931  12
932  8
933  19
934  10
935  18
936  14
937  18
938  10
939  20
940  7
941  12
942  14
943  11
944  3
945  10
946  16
947  11
948  13
949  17
950  14
951  12
952  8
953  15
954  7
955  11
956  14
957  13
958  11
959  13
960  7
961  15
962  15
963  14
964  13
965  12
966  10
967  13
968  9
969  12
970  14
971  12
972  7
973  10
974  11
975  17
976  13
977  6
978  8
979  11
980  16
981  20
982  16
983  10
984  12
985  11
986  16
987  13
988  10
989  8
990  13
991  15
992  9
993  5
994  6
995  12
996  13
997  14
998  16
999  16
1000  8
1001  7
1002  12
1003  13
1004  10
1005  12
1006  6
1007  13
1008  7
1009  8
1010  9
1011  20
1012  9
1013  6
1014  14
1015  11
1016  8
1017  13
1018  4
1019  7
1020  11
1021  15
1022  20
1023  6
1024  12
1025  13
1026  6
1027  13
1028  9
1029  11
1030  12
1031  10
1032  7
1033  12
1034  9
1035  10
1036  13
1037  10
1038  11
1039  10
1040  11
1041  12
1042  12
1043  20
1044  9
1045  10
1046  10
1047  14
1048  15
1049  9
1050  11
1051  12
1052  9
1053  9
1054  12
1055  11
1056  8
1057  9
1058  7
1059  8
1060  11
1061  13
1062  11
1063  6
1064  13
1065  13
1066  8
1067  10
1068  6
1069  15
1070  15
1071  10
1072  14
1073  12
1074  14
1075  9
1076  12
1077  16
1078  11
1079  20
1080  10
1081  10
1082  11
1083  7
1084  10
1085  7
1086  9
1087  10
1088  11
1089  16
1090  12
1091  11
1092  13
1093  10
1094  14
1095  10
1096  19
1097  10
1098  13
1099  14
1100  11
1101  9
1102  8
1103  10
1104  9
1105  6
1106  14
1107  11
1108  15
1109  7
1110  9
1111  11
1112  7
1113  9
1114  11
1115  8
1116  12
1117  5
1118  12
1119  13
1120  16
1121  10
1122  16
1123  8
1124  8
1125  13
1126  14
1127  10
1128  7
1129  8
1130  9
1131  11
1132  12
1133  5
1134  8
1135  9
1136  17
1137  7
1138  3
1139  8
1140  8
1141  14
1142  8
1143  14
1144  12
1145  12
1146  7
1147  7
1148  12
1149  11
1150  7
1151  12
1152  9
1153  9
1154  6
1155  5
1156  17
1157  14
1158  10
1159  8
1160  15
1161  14
1162  8
1163  12
1164  14
1165  9
1166  8
1167  10
1168  4
1169  2
1170  8
1171  18
1172  9
1173  9
1174  13
1175  19
1176  13
1177  9
1178  8
1179  8
1180  11
1181  13
1182  4
1183  10
1184  3
1185  15
1186  11
1187  14
1188  13
1189  9
1190  10
1191  14
1192  10
1193  9
1194  8
1195  11
1196  9
1197  14
1198  10
1199  6
1200  8
1201  8
1202  10
1203  11
1204  6
1205  4
1206  18
1207  7
1208  6
1209  11
1210  12
1211  7
1212  11
1213  7
1214  14
1215  7
1216  7
1217  9
1218  12
1219  5
1220  9
1221  9
1222  16
1223  8
1224  10
1225  12
1226  10
1227  16
1228  13
1229  8
1230  14
1231  8
1232  15
1233  16
1234  15
1235  11
1236  13
1237  16
1238  11
1239  9
1240  11
1241  7
1242  12
1243  7
1244  10
1245  15
1246  6
1247  7
1248  5
1249  11
1250  13
1251  7
1252  7
1253  7
1254  9
1255  10
1256  12
1257  7
1258  9
1259  12
1260  10
1261  11
1262  6
1263  5
1264  13
1265  11
1266  8
1267  13
1268  7
1269  17
1270  11
1271  8
1272  10
1273  10
1274  10
1275  8
1276  12
1277  12
1278  11
1279  16
1280  11
1281  13
1282  11
1283  9
1284  13
1285  8
1286  11
1287  11
1288  9
1289  14
1290  8
1291  15
1292  8
1293  9
1294  10
1295  9
1296  13
1297  10
1298  15
1299  8
1300  11
1301  13
1302  19
1303  6
1304  13
1305  13
1306  12
1307  11
1308  15
1309  7
1310  9
1311  11
1312  13
1313  9
1314  8
1315  11
1316  12
1317  10
1318  7
1319  17
1320  6
1321  4
1322  11
1323  9
1324  7
1325  7
1326  7
1327  11
1328  7
1329  8
1330  10
1331  16
1332  10
1333  12
1334  10
1335  10
1336  5
1337  8
1338  9
1339  15
1340  16
1341  13
1342  13
1343  12
1344  11
1345  8
1346  15
1347  9
1348  9
1349  12
1350  5
1351  13
1352  9
1353  10
1354  7
1355  6
1356  13
1357  3
1358  10
1359  4
1360  6
1361  4
1362  8
1363  6
1364  11
1365  9
1366  10
1367  12
1368  14
1369  10
1370  24
1371  13
1372  10
1373  9
1374  10
1375  17
1376  8
1377  7
1378  13
1379  13
1380  8
1381  7
1382  20
1383  9
1384  9
1385  19
1386  12
1387  8
1388  6
1389  10
1390  9
1391  9
1392  10
1393  10
1394  9
1395  8
1396  9
1397  8
1398  12
1399  9
1400  6
1401  12
1402  10
1403  6
1404  9
1405  9
1406  12
1407  9
1408  8
1409  9
1410  8
1411  9
1412  4
1413  13
1414  5
1415  9
1416  13
1417  8
1418  12
1419  9
1420  7
1421  14
1422  10
1423  5
1424  7
1425  8
1426  5
1427  2
1428  7
1429  7
1430  6
1431  7
1432  11
1433  8
1434  8
1435  11
1436  4
1437  12
1438  7
1439  7
1440  10
1441  8
1442  6
1443  5
1444  7
1445  7
1446  10
1447  7
1448  8
1449  10
1450  10
1451  5
1452  11
1453  10
1454  6
1455  7
1456  2
1457  7
1458  8
1459  9
1460  9
1461  7
1462  5
1463  11
1464  7
1465  9
1466  9
1467  8
1468  9
1469  13
1470  5
1471  9
1472  5
1473  9
1474  10
1475  15
1476  8
1477  6
1478  11
1479  4
1480  10
1481  7
1482  8
1483  4
1484  7
1485  7
1486  10
1487  8
1488  5
1489  7
1490  11
1491  4
1492  10
1493  9
1494  6
1495  10
1496  10
1497  14
1498  12
1499  15
1500  9
1501  4
1502  7
1503  3
1504  7
1505  3
1506  6
1507  16
1508  3
1509  6
1510  8
1511  5
1512  4
1513  15
1514  12
1515  4
1516  10
1517  6
1518  6
1519  5
1520  8
1521  7
1522  6
1523  6
1524  13
1525  6
1526  5
1527  7
1528  6
1529  8
1530  9
1531  6
1532  4
1533  8
1534  6
1535  4
1536  3
1537  6
1538  6
1539  4
1540  7
1541  8
1542  7
1543  7
1544  6
1545  11
1546  9
1547  5
1548  13
1549  8
1550  8
1551  14
1552  7
1553  6
1554  8
1555  5
1556  8
1557  7
1558  10
1559  5
1560  9
1561  3
1562  8
1563  11
1564  7
1565  6
1566  4
1567  7
1568  9
1569  10
1570  7
1571  7
1572  6
1573  9
1574  2
1575  5
1576  5
1577  6
1578  6
1579  9
1580  7
1581  4
1582  3
1583  0
1584  9
1585  9
1586  6
1587  5
1588  7
1589  8
1590  10
1591  9
1592  7
1593  7
1594  10
1595  6
1596  7
1597  6
1598  4
1599  14
1600  9
1601  7
1602  4
1603  8
1604  7
1605  10
1606  7
1607  1
1608  3
1609  7
1610  6
1611  7
1612  5
1613  3
1614  7
1615  4
1616  1
1617  9
1618  4
1619  6
1620  5
1621  7
1622  8
1623  4
1624  8
1625  2
1626  6
1627  3
1628  8
1629  9
1630  11
1631  9
1632  5
1633  7
1634  6
1635  4
1636  6
1637  9
1638  12
1639  4
1640  7
1641  4
1642  10
1643  6
1644  3
1645  11
1646  9
1647  7
1648  5
1649  9
1650  2
1651  5
1652  5
1653  3
1654  6
1655  9
1656  5
1657  7
1658  6
1659  6
1660  3
1661  11
1662  7
1663  8
1664  10
1665  10
1666  5
1667  8
1668  6
1669  4
1670  6
1671  7
1672  11
1673  8
1674  4
1675  3
1676  2
1677  8
1678  8
1679  12
1680  4
1681  5
1682  8
1683  4
1684  8
1685  6
1686  6
1687  3
1688  5
1689  5
1690  4
1691  6
1692  7
1693  8
1694  2
1695  11
1696  6
1697  6
1698  8
1699  8
1700  7
1701  9
1702  4
1703  7
1704  7
1705  5
1706  9
1707  6
1708  6
1709  2
1710  6
1711  8
1712  7
1713  10
1714  6
1715  7
1716  3
1717  8
1718  5
1719  4
1720  7
1721  3
1722  8
1723  3
1724  6
1725  5
1726  4
1727  6
1728  6
1729  4
1730  6
1731  2
1732  5
1733  7
1734  5
1735  8
1736  7
1737  5
1738  8
1739  6
1740  11
1741  8
1742  7
1743  5
1744  6
1745  8
1746  8
1747  4
1748  7
1749  7
1750  10
1751  8
1752  7
1753  11
1754  3
1755  7
1756  6
1757  10
1758  8
1759  11
1760  6
1761  6
1762  3
1763  11
1764  4
1765  5
1766  10
1767  10
1768  5
1769  10
1770  10
1771  7
1772  6
1773  11
1774  7
1775  5
1776  8
1777  7
1778  6
1779  6
1780  5
1781  6
1782  4
1783  5
1784  6
1785  4
1786  6
1787  3
1788  4
1789  9
1790  12
1791  2
1792  6
1793  6
1794  7
1795  11
1796  5
1797  6
1798  7
1799  2
1800  3
1801  5
1802  5
1803  6
1804  8
1805  11
1806  4
1807  4
1808  5
1809  4
1810  8
1811  7
1812  6
1813  8
1814  3
1815  8
1816  8
1817  10
1818  2
1819  4
1820  9
1821  3
1822  8
1823  8
1824  8
1825  1
1826  12
1827  3
1828  4
1829  7
1830  7
1831  5
1832  7
1833  4
1834  9
1835  5
1836  3
1837  9
1838  1
1839  5
1840  6
1841  5
1842  5
1843  6
1844  3
1845  4
1846  12
1847  8
1848  4
1849  5
1850  8
1851  6
1852  4
1853  12
1854  6
1855  7
1856  7
1857  10
1858  5
1859  2
1860  3
1861  5
1862  6
1863  4
1864  7
1865  5
1866  10
1867  4
1868  2
1869  5
1870  5
1871  5
1872  4
1873  9
1874  5
1875  5
1876  4
1877  3
1878  3
1879  7
1880  4
1881  7
1882  4
1883  4
1884  3
1885  7
1886  7
1887  7
1888  9
1889  3
1890  13
1891  6
1892  6
1893  5
1894  3
1895  8
1896  4
1897  5
1898  9
1899  6
1900  4
1901  7
1902  5
1903  10
1904  1
1905  5
1906  5
1907  8
1908  6
1909  3
1910  11
1911  7
1912  5
1913  8
1914  7
1915  1
1916  7
1917  8
1918  5
1919  3
1920  10
1921  5
1922  7
1923  7
1924  4
1925  3
1926  4
1927  5
1928  7
1929  5
1930  4
1931  1
1932  4
1933  6
1934  6
1935  7
1936  5
1937  7
1938  7
1939  4
1940  4
1941  5
1942  7
1943  4
1944  2
1945  8
1946  4
1947  6
1948  6
1949  6
1950  7
1951  9
1952  11
1953  14
1954  5
1955  1
1956  11
1957  9
1958  11
1959  9
1960  4
1961  5
1962  9
1963  10
1964  2
1965  9
1966  7
1967  4
1968  3
1969  4
1970  9
1971  10
1972  3
1973  7
1974  8
1975  3
1976  8
1977  4
1978  2
1979  4
1980  7
1981  6
1982  6
1983  5
1984  6
1985  9
1986  8
1987  5
1988  10
1989  5
1990  5
1991  5
1992  8
1993  4
1994  4
1995  4
1996  2
1997  7
1998  9
1999  3
2000  4
2001  5
2002  3
2003  3
2004  5
2005  8
2006  4
2007  6
2008  5
2009  8
2010  10
2011  5
2012  12
2013  4
2014  6
2015  5
2016  5
2017  7
2018  5
2019  6
2020  5
2021  10
2022  7
2023  6
2024  6
2025  9
2026  8
2027  4
2028  6
2029  4
2030  4
2031  12
2032  6
2033  5
2034  3
2035  5
2036  8
2037  8
2038  8
2039  7
2040  4
2041  5
2042  10
2043  5
2044  6
2045  6
2046  8
2047  7
2048  5
2049  0
2050  2
2051  3
2052  3
2053  5
2054  2
2055  4
2056  3
2057  6
2058  1
2059  4
2060  9
2061  5
2062  5
2063  4
2064  5
2065  7
2066  7
2067  5
2068  6
2069  5
2070  8
2071  9
2072  6
2073  9
2074  5
2075  5
2076  5
2077  6
2078  3
2079  2
2080  3
2081  6
2082  6
2083  5
2084  4
2085  6
2086  5
2087  5
2088  4
2089  4
2090  5
2091  6
2092  3
2093  3
2094  7
2095  8
2096  8
2097  5
2098  5
2099  3
2100  7
2101  7
2102  6
2103  1
2104  6
2105  4
2106  5
2107  6
2108  2
2109  0
2110  5
2111  4
2112  6
2113  4
2114  5
2115  13
2116  3
2117  6
2118  5
2119  4
2120  4
2121  7
2122  10
2123  6
2124  7
2125  7
2126  5
2127  8
2128  4
2129  1
2130  4
2131  5
2132  4
2133  6
2134  9
2135  3
2136  11
2137  7
2138  3
2139  6
2140  7
2141  6
2142  3
2143  3
2144  7
2145  4
2146  6
2147  3
2148  3
2149  4
2150  7
2151  0
2152  6
2153  3
2154  3
2155  6
2156  3
2157  10
2158  5
2159  5
2160  3
2161  7
2162  7
2163  7
2164  8
2165  7
2166  2
2167  2
2168  3
2169  1
2170  1
2171  3
2172  8
2173  2
2174  7
2175  6
2176  7
2177  8
2178  1
2179  4
2180  8
2181  7
2182  6
2183  0
2184  5
2185  5
2186  7
2187  4
2188  6
2189  4
2190  6
2191  0
2192  6
2193  3
2194  7
2195  6
2196  5
2197  2
2198  9
2199  6
2200  5
2201  5
2202  3
2203  2
2204  4
2205  6
2206  5
2207  7
2208  9
2209  8
2210  6
2211  7
2212  3
2213  7
2214  3
2215  5
2216  7
2217  5
2218  8
2219  4
2220  3
2221  1
2222  6
2223  4
2224  4
2225  5
2226  1
2227  6
2228  3
2229  8
2230  4
2231  10
2232  1
2233  5
2234  1
2235  4
2236  2
2237  4
2238  4
2239  3
2240  5
2241  2
2242  8
2243  3
2244  7
2245  3
2246  5
2247  4
2248  4
2249  3
2250  6
2251  7
2252  7
2253  7
2254  6
2255  9
2256  5
2257  5
2258  6
2259  3
2260  7
2261  3
2262  5
2263  5
2264  8
2265  2
2266  6
2267  7
2268  5
2269  3
2270  2
2271  9
2272  6
2273  5
2274  5
2275  5
2276  2
2277  8
2278  10
2279  5
2280  4
2281  7
2282  3
2283  3
2284  0
2285  6
2286  1
2287  3
2288  6
2289  8
2290  6
2291  4
2292  3
2293  4
2294  9
2295  5
2296  10
2297  7
2298  6
2299  7
2300  4
2301  1
2302  6
2303  7
2304  2
2305  0
2306  3
2307  4
2308  3
2309  5
2310  4
2311  1
2312  6
2313  5
2314  3
2315  5
2316  7
2317  5
2318  4
2319  6
2320  6
2321  3
2322  7
2323  5
2324  9
2325  5
2326  7
2327  4
2328  4
2329  5
2330  3
2331  0
2332  4
2333  7
2334  1
2335  7
2336  11
2337  3
2338  5
2339  4
2340  2
2341  3
2342  6
2343  4
2344  4
2345  3
2346  3
2347  2
2348  4
2349  1
2350  5
2351  11
2352  4
2353  8
2354  11
2355  3
2356  3
2357  8
2358  4
2359  6
2360  2
2361  5
2362  6
2363  4
2364  5
2365  2
2366  8
2367  5
2368  5
2369  9
2370  3
2371  4
2372  6
2373  4
2374  6
2375  6
2376  6
2377  6
2378  5
2379  5
2380  1
2381  8
2382  2
2383  5
2384  5
2385  1
2386  8
2387  9
2388  8
2389  4
2390  1
2391  4
2392  4
2393  5
2394  8
2395  4
2396  8
2397  3
2398  1
2399  3
2400  7
2401  6
2402  3
2403  7
2404  5
2405  2
2406  6
2407  5
2408  9
2409  10
2410  4
2411  6
2412  6
2413  4
2414  1
2415  6
2416  10
2417  6
2418  9
2419  1
2420  3
2421  5
2422  4
2423  6
2424  5
2425  9
2426  5
2427  7
2428  3
2429  4
2430  3
2431  6
2432  3
2433  5
2434  5
2435  6
2436  4
2437  0
2438  3
2439  3
2440  2
2441  3
2442  2
2443  8
2444  1
2445  3
2446  6
2447  4
2448  5
2449  6
2450  5
2451  2
2452  5
2453  4
2454  5
2455  6
2456  2
2457  5
2458  7
2459  4
2460  5
2461  4
2462  2
2463  10
2464  6
2465  3
2466  4
2467  3
2468  6
2469  3
2470  7
2471  5
2472  2
2473  5
2474  4
2475  5
2476  12
2477  7
2478  5
2479  4
2480  5
2481  4
2482  3
2483  2
2484  6
2485  6
2486  4
2487  5
2488  6
2489  8
2490  5
2491  7
2492  2
2493  2
2494  3
2495  2
2496  5
2497  4
2498  3
2499  3
2500  3
2501  6
2502  5
2503  4
2504  7
2505  6
2506  4
2507  3
2508  4
2509  2
2510  3
2511  6
2512  5
2513  3
2514  2
2515  4
2516  4
2517  3
2518  5
2519  8
2520  5
2521  3
2522  7
2523  2
2524  2
2525  2
2526  7
2527  0
2528  3
2529  4
2530  3
2531  4
2532  7
2533  6
2534  3
2535  3
2536  4
2537  3
2538  4
2539  6
2540  3
2541  1
2542  2
2543  4
2544  6
2545  2
2546  3
2547  2
2548  4
2549  5
2550  3
2551  4
2552  3
2553  6
2554  4
2555  4
2556  3
2557  5
2558  7
2559  5
2560  8
2561  6
2562  5
2563  7
2564  2
2565  5
2566  7
2567  5
2568  6
2569  2
2570  4
2571  3
2572  4
2573  8
2574  9
2575  6
2576  2
2577  3
2578  4
2579  3
2580  6
2581  7
2582  7
2583  2
2584  10
2585  7
2586  8
2587  1
2588  5
2589  6
2590  4
2591  7
2592  2
2593  6
2594  5
2595  5
2596  5
2597  6
2598  9
2599  3
2600  5
2601  6
2602  5
2603  5
2604  3
2605  3
2606  9
2607  4
2608  9
2609  9
2610  3
2611  7
2612  8
2613  3
2614  4
2615  8
2616  13
2617  7
2618  1
2619  2
2620  7
2621  4
2622  3
2623  1
2624  4
2625  4
2626  5
2627  5
2628  4
2629  2
2630  5
2631  3
2632  5
2633  5
2634  4
2635  8
2636  8
2637  2
2638  2
2639  6
2640  6
2641  5
2642  4
2643  4
2644  4
2645  4
2646  6
2647  6
2648  4
2649  7
2650  3
2651  4
2652  4
2653  4
2654  10
2655  2
2656  2
2657  2
2658  7
2659  2
2660  4
2661  4
2662  7
2663  4
2664  6
2665  7
2666  4
2667  2
2668  5
2669  4
2670  6
2671  6
2672  3
2673  1
2674  5
2675  4
2676  3
2677  4
2678  6
2679  5
2680  5
2681  3
2682  3
2683  5
2684  5
2685  4
2686  5
2687  1
2688  7
2689  1
2690  5
2691  6
2692  7
2693  6
2694  2
2695  7
2696  5
2697  8
2698  4
2699  5
2700  5
2701  3
2702  5
2703  5
2704  7
2705  3
2706  8
2707  1
2708  6
2709  6
2710  5
2711  7
2712  3
2713  2
2714  5
2715  4
2716  4
2717  6
2718  1
2719  4
2720  4
2721  2
2722  7
2723  2
2724  3
2725  4
2726  3
2727  5
2728  5
2729  3
2730  11
2731  3
2732  6
2733  2
2734  6
2735  3
2736  4
2737  3
2738  5
2739  7
2740  1
2741  9
2742  9
2743  8
2744  2
2745  3
2746  3
2747  3
2748  6
2749  2
2750  5
2751  5
2752  4
2753  4
2754  2
2755  5
2756  4
2757  5
2758  8
2759  2
2760  4
2761  5
2762  3
2763  4
2764  7
2765  3
2766  5
2767  3
2768  1
2769  5
2770  4
2771  6
2772  3
2773  8
2774  3
2775  10
2776  7
2777  7
2778  3
2779  12
2780  6
2781  2
2782  5
2783  5
2784  6
2785  4
2786  6
2787  3
2788  7
2789  4
2790  1
2791  8
2792  3
2793  6
2794  4
2795  2
2796  2
2797  2
2798  8
2799  5
2800  6
2801  3
2802  2
2803  1
2804  6
2805  4
2806  3
2807  5
2808  5
2809  1
2810  2
2811  2
2812  3
2813  7
2814  5
2815  5
2816  5
2817  5
2818  6
2819  5
2820  2
2821  1
2822  6
2823  0
2824  5
2825  5
2826  3
2827  5
2828  5
2829  8
2830  3
2831  2
2832  1
2833  4
2834  8
2835  3
2836  4
2837  1
2838  4
2839  8
2840  4
2841  2
2842  5
2843  5
2844  4
2845  2
2846  4
2847  0
2848  7
2849  7
2850  1
2851  4
2852  5
2853  3
2854  3
2855  6
2856  6
2857  4
2858  4
2859  5
2860  4
2861  9
2862  2
2863  5
2864  3
2865  4
2866  7
2867  4
2868  10
2869  6
2870  3
2871  2
2872  6
2873  3
2874  4
2875  4
2876  7
2877  5
2878  5
2879  1
2880  3
2881  8
2882  2
2883  5
2884  6
2885  3
2886  5
2887  8
2888  4
2889  4
2890  4
2891  3
2892  7
2893  4
2894  6
2895  3
2896  4
2897  2
2898  3
2899  3
2900  8
2901  5
2902  9
2903  9
2904  2
2905  5
2906  3
2907  2
2908  2
2909  2
2910  2
2911  5
2912  6
2913  3
2914  3
2915  3
2916  2
2917  10
2918  7
2919  5
2920  4
2921  5
2922  7
2923  7
2924  6
2925  10
2926  6
2927  4
2928  5
2929  2
2930  5
2931  4
2932  4
2933  5
2934  0
2935  4
2936  3
2937  3
2938  5
2939  4
2940  11
2941  5
2942  4
2943  2
2944  2
2945  6
2946  2
2947  4
2948  3
2949  4
2950  5
2951  5
2952  6
2953  3
2954  7
2955  4
2956  6
2957  4
2958  2
2959  4
2960  8
2961  4
2962  4
2963  3
2964  6
2965  7
2966  7
2967  6
2968  9
2969  3
2970  1
2971  3
2972  5
2973  2
2974  2
2975  6
2976  4
2977  7
2978  0
2979  2
2980  6
2981  3
2982  9
2983  5
2984  5
2985  3
2986  1
2987  5
2988  5
2989  3
2990  4
2991  6
2992  7
2993  5
2994  2
2995  5
2996  1
2997  4
2998  4
2999  6
3000  4
3001  4
3002  7
3003  4
3004  4
3005  1
3006  3
3007  5
3008  10
3009  7
3010  1
3011  8
3012  4
3013  7
3014  7
3015  7
3016  3
3017  5
3018  4
3019  4
3020  6
3021  4
3022  6
3023  4
3024  6
3025  4
3026  4
3027  8
3028  5
3029  2
3030  2
3031  3
3032  4
3033  5
3034  3
3035  8
3036  1
3037  7
3038  2
3039  5
3040  3
3041  4
3042  4
3043  4
3044  5
3045  1
3046  5
3047  4
3048  6
3049  6
3050  1
3051  5
3052  7
3053  4
3054  2
3055  2
3056  5
3057  3
3058  4
3059  2
3060  3
3061  6
3062  3
3063  5
3064  6
3065  10
3066  6
3067  4
3068  10
3069  6
3070  5
3071  4
3072  5
3073  4
3074  6
3075  4
3076  5
3077  1
3078  7
3079  4
3080  7
3081  8
3082  5
3083  5
3084  4
3085  5
3086  4
3087  6
3088  1
3089  2
3090  5
3091  3
3092  3
3093  5
3094  6
3095  1
3096  4
3097  5
3098  3
3099  4
3100  5
3101  6
3102  2
3103  3
3104  4
3105  2
3106  9
3107  6
3108  6
3109  3
3110  5
3111  2
3112  4
3113  4
3114  6
3115  1
3116  9
3117  2
3118  1
3119  4
3120  6
3121  9
3122  8
3123  9
3124  3
3125  1
3126  8
3127  5
3128  8
3129  5
3130  3
3131  7
3132  6
3133  6
3134  5
3135  6
3136  4
3137  9
3138  3
3139  3
3140  8
3141  7
3142  7
3143  6
3144  4
3145  6
3146  7
3147  4
3148  7
3149  5
3150  5
3151  6
3152  6
3153  2
3154  8
3155  3
3156  7
3157  5
3158  5
3159  2
3160  4
3161  4
3162  2
3163  3
3164  6
3165  0
3166  3
3167  4
3168  7
3169  6
3170  4
3171  7
3172  1
3173  4
3174  4
3175  2
3176  2
3177  4
3178  3
3179  3
3180  2
3181  4
3182  4
3183  6
3184  4
3185  5
3186  5
3187  2
3188  2
3189  2
3190  7
3191  6
3192  5
3193  8
3194  4
3195  6
3196  3
3197  6
3198  2
3199  2
3200  2
3201  3
3202  7
3203  6
3204  3
3205  9
3206  5
3207  4
3208  3
3209  4
3210  6
3211  3
3212  9
3213  3
3214  5
3215  4
3216  3
3217  3
3218  6
3219  7
3220  4
3221  2
3222  5
3223  5
3224  3
3225  7
3226  2
3227  5
3228  7
3229  5
3230  5
3231  5
3232  3
3233  7
3234  5
3235  2
3236  4
3237  3
3238  3
3239  9
3240  4
3241  4
3242  3
3243  5
3244  3
3245  4
3246  4
3247  8
3248  2
3249  3
3250  3
3251  4
3252  1
3253  7
3254  3
3255  7
3256  6
3257  3
3258  3
3259  3
3260  6
3261  3
3262  6
3263  2
3264  5
3265  5
3266  6
3267  5
3268  3
3269  4
3270  1
3271  7
3272  6
3273  6
3274  4
3275  7
3276  5
3277  5
3278  6
3279  5
3280  3
3281  4
3282  4
3283  9
3284  5
3285  6
3286  7
3287  6
3288  5
3289  6
3290  9
3291  7
3292  9
3293  5
3294  5
3295  3
3296  3
3297  2
3298  7
3299  4
3300  9
3301  4
3302  1
3303  3
3304  8
3305  3
3306  9
3307  3
3308  4
3309  3
3310  5
3311  6
3312  5
3313  1
3314  3
3315  3
3316  1
3317  2
3318  4
3319  4
3320  8
3321  5
3322  1
3323  2
3324  1
3325  7
3326  0
3327  4
3328  6
3329  2
3330  1
3331  6
3332  3
3333  5
3334  4
3335  2
3336  4
3337  8
3338  4
3339  3
3340  6
3341  5
3342  2
3343  0
3344  1
3345  3
3346  10
3347  7
3348  5
3349  3
3350  5
3351  4
3352  2
3353  3
3354  5
3355  4
3356  3
3357  6
3358  1
3359  3
3360  9
3361  5
3362  3
3363  3
3364  5
3365  3
3366  4
3367  9
3368  8
3369  2
3370  5
3371  6
3372  4
3373  5
3374  3
3375  4
3376  2
3377  3
3378  9
3379  4
3380  4
3381  2
3382  4
3383  3
3384  2
3385  3
3386  5
3387  1
3388  4
3389  5
3390  5
3391  6
3392  3
3393  5
3394  2
3395  3
3396  6
3397  4
3398  4
3399  3
3400  6
3401  1
3402  5
3403  1
3404  4
3405  8
3406  4
3407  4
3408  4
3409  2
3410  6
3411  2
3412  5
3413  4
3414  6
3415  3
3416  5
3417  2
3418  5
3419  3
3420  7
3421  3
3422  4
3423  1
3424  5
3425  4
3426  2
3427  6
3428  3
3429  2
3430  3
3431  4
3432  4
3433  6
3434  6
3435  3
3436  4
3437  10
3438  5
3439  5
3440  5
3441  3
3442  3
3443  2
3444  6
3445  8
3446  0
3447  3
3448  2
3449  9
3450  8
3451  6
3452  3
3453  3
3454  3
3455  3
3456  3
3457  2
3458  3
3459  0
3460  3
3461  3
3462  4
3463  2
3464  2
3465  7
3466  4
3467  4
3468  3
3469  4
3470  5
3471  3
3472  5
3473  8
3474  7
3475  3
3476  3
3477  5
3478  2
3479  2
3480  4
3481  4
3482  2
3483  5
3484  6
3485  0
3486  4
3487  6
3488  6
3489  7
3490  8
3491  7
3492  2
3493  5
3494  5
3495  5
3496  3
3497  7
3498  7
3499  7
3500  4
3501  4
3502  4
3503  3
3504  10
3505  2
3506  3
3507  4
3508  8
3509  5
3510  3
3511  2
3512  2
3513  5
3514  4
3515  5
3516  6
3517  2
3518  6
3519  3
3520  6
3521  6
3522  4
3523  3
3524  1
3525  4
3526  5
3527  3
3528  7
3529  7
3530  3
3531  1
3532  0
3533  1
3534  5
3535  4
3536  5
3537  10
3538  3
3539  2
3540  9
3541  4
3542  3
3543  10
3544  4
3545  7
3546  4
3547  3
3548  7
3549  7
3550  1
3551  5
3552  5
3553  7
3554  3
3555  5
3556  3
3557  5
3558  4
3559  6
3560  4
3561  6
3562  4
3563  4
3564  3
3565  6
3566  5
3567  0
3568  4
3569  3
3570  3
3571  4
3572  7
3573  4
3574  5
3575  5
3576  4
3577  1
3578  6
3579  0
3580  2
3581  6
3582  7
3583  4
3584  3
3585  5
3586  5
3587  7
3588  6
3589  6
3590  5
3591  7
3592  2
3593  6
3594  1
3595  4
3596  8
3597  2
3598  4
3599  1
3600  5
3601  7
3602  6
3603  7
3604  1
3605  1
3606  3
3607  3
3608  4
3609  9
3610  5
3611  4
3612  4
3613  3
3614  2
3615  5
3616  4
3617  5
3618  3
3619  4
3620  5
3621  4
3622  1
3623  5
3624  4
3625  4
3626  4
3627  0
3628  1
3629  0
3630  11
3631  3
3632  6
3633  3
3634  2
3635  4
3636  5
3637  4
3638  6
3639  7
3640  5
3641  4
3642  6
3643  4
3644  5
3645  6
3646  4
3647  8
3648  2
3649  10
3650  2
3651  8
3652  1
3653  6
3654  3
3655  4
3656  4
3657  6
3658  1
3659  2
3660  1
3661  2
3662  5
3663  6
3664  4
3665  3
3666  5
3667  5
3668  6
3669  3
3670  5
3671  7
3672  9
3673  5
3674  4
3675  4
3676  7
3677  4
3678  1
3679  5
3680  4
3681  6
3682  3
3683  3
3684  7
3685  4
3686  4
3687  3
3688  8
3689  3
3690  5
3691  3
3692  5
3693  3
3694  4
3695  3
3696  4
3697  0
3698  2
3699  7
3700  6
3701  2
3702  3
3703  3
3704  3
3705  2
3706  3
3707  3
3708  5
3709  3
3710  4
3711  2
3712  2
3713  5
3714  6
3715  6
3716  5
3717  2
3718  3
3719  3
3720  5
3721  4
3722  4
3723  4
3724  2
3725  4
3726  1
3727  5
3728  5
3729  5
3730  9
3731  3
3732  2
3733  3
3734  2
3735  4
3736  4
3737  5
3738  8
3739  8
3740  4
3741  6
3742  1
3743  7
3744  4
3745  5
3746  2
3747  4
3748  8
3749  5
3750  5
3751  8
3752  1
3753  5
3754  5
3755  5
3756  4
3757  9
3758  4
3759  4
3760  3
3761  7
3762  6
3763  10
3764  9
3765  4
3766  7
3767  6
3768  1
3769  4
3770  5
3771  2
3772  2
3773  2
3774  6
3775  5
3776  6
3777  8
3778  7
3779  6
3780  7
3781  2
3782  5
3783  2
3784  2
3785  1
3786  3
3787  3
3788  2
3789  5
3790  3
3791  3
3792  4
3793  3
3794  5
3795  7
3796  1
3797  5
3798  4
3799  5
3800  5
3801  4
3802  5
3803  6
3804  4
3805  7
3806  4
3807  1
3808  4
3809  4
3810  2
3811  8
3812  4
3813  5
3814  3
3815  6
3816  1
3817  6
3818  4
3819  7
3820  2
3821  5
3822  7
3823  6
3824  6
3825  2
3826  7
3827  7
3828  3
3829  3
3830  6
3831  4
3832  5
3833  4
3834  5
3835  4
3836  6
3837  5
3838  8
3839  5
3840  4
3841  8
3842  7
3843  5
3844  3
3845  4
3846  4
3847  7
3848  7
3849  7
3850  9
3851  4
3852  2
3853  5
3854  8
3855  4
3856  6
3857  2
3858  4
3859  9
3860  4
3861  5
3862  2
3863  1
3864  6
3865  3
3866  2
3867  6
3868  6
3869  8
3870  5
3871  5
3872  5
3873  2
3874  7
3875  6
3876  7
3877  4
3878  3
3879  5
3880  10
3881  2
3882  4
3883  8
3884  2
3885  0
3886  3
3887  4
3888  2
3889  6
3890  5
3891  6
3892  5
3893  2
3894  5
3895  3
3896  4
3897  6
3898  3
3899  2
3900  5
3901  2
3902  7
3903  4
3904  3
3905  4
3906  4
3907  6
3908  7
3909  4
3910  4
3911  3
3912  3
3913  5
3914  6
3915  4
3916  5
3917  8
3918  1
3919  5
3920  8
3921  4
3922  3
3923  8
3924  4
3925  4
3926  3
3927  4
3928  5
3929  3
3930  2
3931  3
3932  3
3933  2
3934  6
3935  2
3936  4
3937  7
3938  6
3939  6
3940  11
3941  2
3942  3
3943  6
3944  6
3945  5
3946  3
3947  6
3948  3
3949  2
3950  2
3951  7
3952  4
3953  8
3954  5
3955  2
3956  6
3957  7
3958  1
3959  4
3960  6
3961  2
3962  3
3963  4
3964  6
3965  7
3966  1
3967  5
3968  4
3969  2
3970  5
3971  3
3972  10
3973  4
3974  1
3975  3
3976  5
3977  5
3978  2
3979  7
3980  3
3981  1
3982  6
3983  3
3984  8
3985  3
3986  2
3987  2
3988  7
3989  5
3990  9
3991  7
3992  4
3993  8
3994  4
3995  4
3996  3
3997  3
3998  2
3999  5
4000  4
4001  7
4002  3
4003  7
4004  9
4005  4
4006  0
4007  1
4008  5
4009  6
4010  6
4011  4
4012  6
4013  2
4014  4
4015  2
4016  7
4017  7
4018  4
4019  5
4020  4
4021  8
4022  3
4023  6
4024  3
4025  3
4026  5
4027  5
4028  4
4029  5
4030  2
4031  3
4032  2
4033  5
4034  8
4035  5
4036  3
4037  5
4038  6
4039  8
4040  4
4041  2
4042  3
4043  2
4044  7
4045  13
4046  2
4047  4
4048  4
4049  3
4050  6
4051  4
4052  8
4053  3
4054  7
4055  2
4056  8
4057  5
4058  6
4059  9
4060  3
4061  3
4062  6
4063  6
4064  4
4065  6
4066  2
4067  3
4068  2
4069  3
4070  5
4071  2
4072  2
4073  4
4074  4
4075  5
4076  4
4077  7
4078  4
4079  5
4080  6
4081  3
4082  9
4083  4
4084  6
4085  3
4086  3
4087  5
4088  4
4089  4
4090  7
4091  5
4092  4
4093  5
4094  6
4095  4
4096  6
4097  9
4098  4
4099  2
4100  3
4101  1
4102  4
4103  5
4104  5
4105  2
4106  4
4107  4
4108  3
4109  3
4110  4
4111  5
4112  4
4113  6
4114  3
4115  6
4116  1
4117  2
4118  5
4119  7
4120  0
4121  1
4122  6
4123  5
4124  1
4125  2
4126  4
4127  8
4128  9
4129  9
4130  3
4131  4
4132  8
4133  3
4134  6
4135  4
4136  4
4137  3
4138  6
4139  6
4140  9
4141  1
4142  5
4143  7
4144  4
4145  6
4146  6
4147  9
4148  6
4149  4
4150  6
4151  5
4152  8
4153  8
4154  7
4155  7
4156  6
4157  2
4158  7
4159  0
4160  3
4161  4
4162  2
4163  4
4164  7
4165  7
4166  3
4167  4
4168  1
4169  2
4170  8
4171  8
4172  6
4173  6
4174  8
4175  0
4176  6
4177  7
4178  1
4179  5
4180  4
4181  6
4182  5
4183  6
4184  7
4185  2
4186  5
4187  9
4188  3
4189  5
4190  6
4191  4
4192  3
4193  3
4194  6
4195  3
4196  5
4197  4
4198  7
4199  5
4200  3
4201  5
4202  6
4203  6
4204  4
4205  6
4206  5
4207  3
4208  1
4209  3
4210  8
4211  5
4212  5
4213  6
4214  7
4215  7
4216  4
4217  2
4218  3
4219  6
4220  4
4221  8
4222  8
4223  8
4224  9
4225  3
4226  6
4227  6
4228  5
4229  5
4230  6
4231  5
4232  6
4233  6
4234  4
4235  6
4236  5
4237  6
4238  7
4239  5
4240  3
4241  7
4242  7
4243  3
4244  2
4245  4
4246  5
4247  4
4248  5
4249  8
4250  5
4251  7
4252  7
4253  6
4254  4
4255  8
4256  4
4257  6
4258  4
4259  9
4260  3
4261  7
4262  7
4263  5
4264  5
4265  7
4266  3
4267  5
4268  4
4269  6
4270  2
4271  5
4272  3
4273  9
4274  5
4275  12
4276  6
4277  3
4278  5
4279  11
4280  9
4281  4
4282  7
4283  8
4284  6
4285  3
4286  5
4287  6
4288  2
4289  7
4290  10
4291  6
4292  2
4293  5
4294  8
4295  2
4296  3
4297  5
4298  4
4299  7
4300  6
4301  6
4302  2
4303  7
4304  5
4305  7
4306  2
4307  4
4308  3
4309  4
4310  5
4311  7
4312  5
4313  6
4314  3
4315  5
4316  9
4317  6
4318  3
4319  3
4320  5
4321  3
4322  3
4323  3
4324  6
4325  7
4326  2
4327  6
4328  6
4329  2
4330  4
4331  6
4332  1
4333  3
4334  8
4335  5
4336  8
4337  7
4338  7
4339  7
4340  4
4341  6
4342  8
4343  2
4344  6
4345  6
4346  3
4347  1
4348  4
4349  6
4350  5
4351  6
4352  7
4353  5
4354  8
4355  9
4356  3
4357  4
4358  5
4359  3
4360  8
4361  3
4362  6
4363  5
4364  5
4365  6
4366  6
4367  6
4368  7
4369  8
4370  9
4371  6
4372  8
4373  6
4374  7
4375  8
4376  4
4377  3
4378  8
4379  4
4380  2
4381  2
4382  6
4383  5
4384  6
4385  2
4386  7
4387  8
4388  6
4389  5
4390  3
4391  8
4392  10
4393  4
4394  4
4395  4
4396  12
4397  5
4398  2
4399  5
4400  7
4401  8
4402  6
4403  8
4404  10
4405  8
4406  6
4407  11
4408  3
4409  5
4410  6
4411  6
4412  8
4413  6
4414  6
4415  7
4416  6
4417  5
4418  7
4419  5
4420  6
4421  4
4422  5
4423  9
4424  3
4425  9
4426  5
4427  5
4428  8
4429  6
4430  8
4431  8
4432  10
4433  6
4434  9
4435  3
4436  6
4437  9
4438  6
4439  6
4440  3
4441  3
4442  6
4443  0
4444  5
4445  3
4446  7
4447  4
4448  7
4449  4
4450  4
4451  4
4452  3
4453  7
4454  3
4455  4
4456  5
4457  4
4458  10
4459  6
4460  4
4461  6
4462  3
4463  3
4464  10
4465  7
4466  6
4467  1
4468  5
4469  6
4470  7
4471  3
4472  4
4473  4
4474  5
4475  9
4476  5
4477  5
4478  3
4479  6
4480  3
4481  7
4482  6
4483  3
4484  6
4485  3
4486  8
4487  8
4488  4
4489  9
4490  11
4491  3
4492  7
4493  5
4494  5
4495  4
4496  3
4497  5
4498  4
4499  7
4500  6
4501  7
4502  3
4503  4
4504  6
4505  3
4506  8
4507  2
4508  8
4509  7
4510  7
4511  2
4512  6
4513  6
4514  5
4515  7
4516  2
4517  6
4518  8
4519  7
4520  5
4521  4
4522  6
4523  5
4524  5
4525  2
4526  7
4527  3
4528  2
4529  5
4530  8
4531  0
4532  3
4533  4
4534  5
4535  4
4536  6
4537  8
4538  2
4539  4
4540  6
4541  11
4542  5
4543  3
4544  7
4545  7
4546  4
4547  4
4548  5
4549  6
4550  6
4551  5
4552  7
4553  7
4554  3
4555  4
4556  6
4557  4
4558  5
4559  8
4560  8
4561  5
4562  5
4563  3
4564  6
4565  2
4566  6
4567  4
4568  5
4569  8
4570  7
4571  6
4572  4
4573  5
4574  7
4575  5
4576  3
4577  12
4578  4
4579  4
4580  6
4581  10
4582  8
4583  4
4584  6
4585  7
4586  4
4587  5
4588  8
4589  8
4590  2
4591  5
4592  8
4593  2
4594  6
4595  8
4596  5
4597  8
4598  4
4599  7
4600  6
4601  6
4602  9
4603  2
4604  4
4605  4
4606  6
4607  7
4608  2
4609  6
4610  5
4611  7
4612  5
4613  7
4614  6
4615  6
4616  3
4617  4
4618  1
4619  9
4620  6
4621  4
4622  6
4623  5
4624  8
4625  8
4626  6
4627  6
4628  4
4629  4
4630  4
4631  7
4632  2
4633  7
4634  6
4635  6
4636  4
4637  4
4638  7
4639  3
4640  1
4641  9
4642  5
4643  6
4644  5
4645  8
4646  5
4647  3
4648  3
4649  4
4650  5
4651  4
4652  6
4653  4
4654  10
4655  6
4656  3
4657  8
4658  5
4659  6
4660  9
4661  5
4662  3
4663  7
4664  6
4665  5
4666  6
4667  4
4668  6
4669  5
4670  5
4671  4
4672  7
4673  3
4674  4
4675  6
4676  3
4677  12
4678  3
4679  6
4680  4
4681  7
4682  6
4683  6
4684  8
4685  7
4686  7
4687  3
4688  6
4689  3
4690  6
4691  4
4692  7
4693  3
4694  5
4695  5
4696  5
4697  9
4698  6
4699  4
4700  6
4701  5
4702  6
4703  6
4704  1
4705  9
4706  7
4707  6
4708  5
4709  10
4710  3
4711  4
4712  5
4713  9
4714  7
4715  8
4716  7
4717  5
4718  8
4719  9
4720  2
4721  6
4722  10
4723  7
4724  7
4725  3
4726  1
4727  3
4728  4
4729  6
4730  3
4731  9
4732  6
4733  11
4734  5
4735  7
4736  8
4737  6
4738  6
4739  4
4740  7
4741  6
4742  6
4743  5
4744  6
4745  10
4746  4
4747  7
4748  2
4749  6
4750  9
4751  4
4752  3
4753  9
4754  5
4755  5
4756  3
4757  6
4758  2
4759  3
4760  6
4761  8
4762  6
4763  5
4764  3
4765  6
4766  9
4767  4
4768  3
4769  5
4770  2
4771  7
4772  3
4773  6
4774  3
4775  3
4776  4
4777  5
4778  3
4779  7
4780  5
4781  6
4782  12
4783  6
4784  7
4785  4
4786  14
4787  7
4788  3
4789  5
4790  4
4791  7
4792  3
4793  6
4794  5
4795  4
4796  3
4797  11
4798  5
4799  2
4800  11
4801  3
4802  8
4803  4
4804  11
4805  9
4806  5
4807  5
4808  4
4809  1
4810  6
4811  13
4812  5
4813  3
4814  11
4815  8
4816  8
4817  7
4818  3
4819  6
4820  6
4821  6
4822  8
4823  9
4824  5
4825  5
4826  7
4827  4
4828  3
4829  6
4830  7
4831  6
4832  7
4833  2
4834  7
4835  4
4836  1
4837  7
4838  7
4839  3
4840  9
4841  8
4842  6
4843  6
4844  7
4845  8
4846  5
4847  6
4848  5
4849  4
4850  7
4851  7
4852  5
4853  3
4854  6
4855  5
4856  7
4857  5
4858  8
4859  7
4860  6
4861  8
4862  5
4863  4
4864  7
4865  6
4866  4
4867  7
4868  5
4869  5
4870  4
4871  12
4872  7
4873  6
4874  6
4875  6
4876  8
4877  5
4878  7
4879  5
4880  6
4881  5
4882  5
4883  4
4884  6
4885  9
4886  8
4887  7
4888  9
4889  8
4890  12
4891  8
4892  8
4893  6
4894  7
4895  9
4896  5
4897  6
4898  4
4899  4
4900  6
4901  5
4902  8
4903  3
4904  5
4905  7
4906  7
4907  4
4908  7
4909  4
4910  6
4911  4
4912  8
4913  4
4914  7
4915  11
4916  5
4917  5
4918  8
4919  3
4920  6
4921  8
4922  2
4923  3
4924  12
4925  7
4926  9
4927  4
4928  7
4929  6
4930  8
4931  2
4932  4
4933  11
4934  8
4935  9
4936  9
4937  9
4938  7
4939  5
4940  4
4941  11
4942  8
4943  6
4944  6
4945  6
4946  11
4947  2
4948  8
4949  13
4950  4
4951  5
4952  9
4953  3
4954  5
4955  7
4956  6
4957  6
4958  4
4959  9
4960  5
4961  4
4962  6
4963  4
4964  10
4965  2
4966  6
4967  8
4968  4
4969  8
4970  7
4971  8
4972  8
4973  8
4974  6
4975  14
4976  7
4977  7
4978  5
4979  8
4980  5
4981  4
4982  9
4983  4
4984  4
4985  6
4986  10
4987  3
4988  3
4989  5
4990  6
4991  6
4992  9
4993  10
4994  3
4995  12
4996  12
4997  6
4998  5
4999  4
5000  7
5001  12
5002  7
5003  6
5004  7
5005  9
5006  8
5007  5
5008  9
5009  1
5010  4
5011  4
5012  8
5013  7
5014  9
5015  9
5016  9
5017  15
5018  6
5019  7
5020  6
5021  6
5022  5
5023  3
5024  9
5025  5
5026  5
5027  7
5028  10
5029  5
5030  6
5031  11
5032  4
5033  7
5034  5
5035  11
5036  9
5037  8
5038  4
5039  7
5040  7
5041  6
5042  9
5043  5
5044  11
5045  5
5046  4
5047  7
5048  10
5049  7
5050  9
5051  10
5052  10
5053  8
5054  7
5055  13
5056  4
5057  7
5058  6
5059  12
5060  3
5061  9
5062  9
5063  9
5064  7
5065  4
5066  12
5067  13
5068  7
5069  8
5070  10
5071  9
5072  6
5073  5
5074  6
5075  10
5076  3
5077  9
5078  7
5079  4
5080  8
5081  11
5082  6
5083  6
5084  11
5085  9
5086  4
5087  7
5088  8
5089  6
5090  3
5091  6
5092  12
5093  2
5094  2
5095  9
5096  12
5097  2
5098  12
5099  4
5100  4
5101  6
5102  6
5103  6
5104  6
5105  8
5106  8
5107  5
5108  6
5109  3
5110  9
5111  9
5112  7
5113  2
5114  8
5115  13
5116  3
5117  7
5118  11
5119  5
5120  6
5121  5
5122  12
5123  4
5124  4
5125  4
5126  10
5127  1
5128  6
5129  4
5130  5
5131  3
5132  3
5133  3
5134  3
5135  8
5136  7
5137  4
5138  8
5139  8
5140  7
5141  7
5142  7
5143  7
5144  3
5145  4
5146  5
5147  2
5148  6
5149  4
5150  5
5151  4
5152  3
5153  7
5154  5
5155  2
5156  5
5157  4
5158  3
5159  6
5160  3
5161  3
5162  1
5163  4
5164  8
5165  4
5166  6
5167  5
5168  9
5169  6
5170  5
5171  7
5172  6
5173  4
5174  7
5175  3
5176  1
5177  3
5178  4
5179  6
5180  4
5181  5
5182  3
5183  4
5184  3
5185  5
5186  8
5187  7
5188  7
5189  8
5190  2
5191  2
5192  9
5193  4
5194  4
5195  6
5196  6
5197  3
5198  6
5199  5
5200  5
5201  4
5202  4
5203  7
5204  3
5205  7
5206  6
5207  9
5208  6
5209  2
5210  3
5211  2
5212  3
5213  3
5214  8
5215  3
5216  3
5217  6
5218  7
5219  3
5220  6
5221  4
5222  4
5223  3
5224  4
5225  2
5226  4
5227  4
5228  4
5229  7
5230  3
5231  6
5232  8
5233  4
5234  5
5235  3
5236  6
5237  2
5238  5
5239  5
5240  4
5241  8
5242  6
5243  5
5244  8
5245  5
5246  5
5247  4
5248  5
5249  9
5250  4
5251  4
5252  4
5253  10
5254  3
5255  3
5256  5
5257  8
5258  3
5259  3
5260  4
5261  5
5262  5
5263  2
5264  3
5265  5
5266  8
5267  8
5268  1
5269  7
5270  5
5271  5
5272  7
5273  2
5274  2
5275  7
5276  6
5277  3
5278  3
5279  11
5280  5
5281  6
5282  5
5283  6
5284  5
5285  3
5286  7
5287  6
5288  5
5289  7
5290  5
5291  5
5292  4
5293  7
5294  6
5295  8
5296  8
5297  3
5298  6
5299  4
5300  5
5301  2
5302  4
5303  5
5304  7
5305  4
5306  4
5307  9
5308  3
5309  2
5310  5
5311  1
5312  4
5313  3
5314  4
5315  4
5316  4
5317  6
5318  1
5319  3
5320  4
5321  10
5322  2
5323  7
5324  5
5325  5
5326  9
5327  7
5328  4
5329  2
5330  4
5331  1
5332  4
5333  4
5334  4
5335  4
5336  7
5337  4
5338  9
5339  6
5340  4
5341  7
5342  4
5343  5
5344  4
5345  8
5346  5
5347  4
5348  7
5349  4
5350  6
5351  3
5352  3
5353  7
5354  1
5355  8
5356  2
5357  4
5358  6
5359  6
5360  2
5361  7
5362  4
5363  5
5364  4
5365  4
5366  10
5367  4
5368  3
5369  2
5370  6
5371  3
5372  7
5373  4
5374  5
5375  0
5376  3
5377  5
5378  3
5379  3
5380  2
5381  6
5382  4
5383  4
5384  7
5385  5
5386  8
5387  6
5388  5
5389  6
5390  4
5391  5
5392  6
5393  2
5394  2
5395  2
5396  3
5397  5
5398  6
5399  7
5400  2
5401  7
5402  9
5403  3
5404  8
5405  5
5406  2
5407  5
5408  8
5409  1
5410  3
5411  4
5412  5
5413  3
5414  5
5415  7
5416  5
5417  5
5418  3
5419  4
5420  6
5421  5
5422  4
5423  5
5424  2
5425  5
5426  4
5427  3
5428  2
5429  7
5430  5
5431  3
5432  7
5433  7
5434  2
5435  2
5436  3
5437  4
5438  4
5439  4
5440  6
5441  6
5442  1
5443  4
5444  2
5445  4
5446  4
5447  2
5448  7
5449  8
5450  6
5451  6
5452  6
5453  5
5454  7
5455  5
5456  3
5457  3
5458  6
5459  3
5460  4
5461  1
5462  4
5463  0
5464  5
5465  4
5466  1
5467  6
5468  5
5469  6
5470  5
5471  5
5472  7
5473  5
5474  4
5475  8
5476  6
5477  6
5478  4
5479  5
5480  5
5481  6
5482  1
5483  4
5484  7
5485  3
5486  2
5487  7
5488  6
5489  8
5490  5
5491  4
5492  7
5493  3
5494  4
5495  6
5496  5
5497  2
5498  3
5499  4
5500  2
5501  2
5502  4
5503  6
5504  1
5505  9
5506  4
5507  3
5508  4
5509  4
5510  3
5511  2
5512  4
5513  2
5514  4
5515  4
5516  9
5517  5
5518  5
5519  3
5520  2
5521  0
5522  2
5523  3
5524  1
5525  2
5526  5
5527  3
5528  1
5529  7
5530  5
5531  9
5532  6
5533  5
5534  3
5535  3
5536  0
5537  1
5538  2
5539  1
5540  2
5541  4
5542  4
5543  4
5544  3
5545  6
5546  5
5547  6
5548  9
5549  2
5550  3
5551  5
5552  4
5553  2
5554  5
5555  1
5556  2
5557  1
5558  6
5559  7
5560  0
5561  5
5562  6
5563  5
5564  5
5565  4
5566  2
5567  3
5568  6
5569  4
5570  4
5571  1
5572  1
5573  3
5574  1
5575  2
5576  8
5577  3
5578  4
5579  3
5580  8
5581  2
5582  9
5583  4
5584  7
5585  12
5586  4
5587  3
5588  3
5589  3
5590  1
5591  2
5592  7
5593  5
5594  3
5595  4
5596  5
5597  3
5598  6
5599  6
5600  6
5601  5
5602  3
5603  4
5604  4
5605  4
5606  4
5607  3
5608  8
5609  3
5610  2
5611  5
5612  6
5613  1
5614  4
5615  3
5616  2
5617  3
5618  7
5619  5
5620  5
5621  8
5622  2
5623  6
5624  9
5625  6
5626  8
5627  4
5628  0
5629  6
5630  7
5631  2
5632  4
5633  1
5634  2
5635  4
5636  1
5637  3
5638  5
5639  1
5640  2
5641  5
5642  4
5643  4
5644  3
5645  6
5646  5
5647  3
5648  6
5649  3
5650  7
5651  4
5652  7
5653  7
5654  4
5655  4
5656  5
5657  2
5658  4
5659  3
5660  4
5661  4
5662  5
5663  7
5664  8
5665  6
5666  3
5667  6
5668  3
5669  3
5670  5
5671  3
5672  2
5673  3
5674  8
5675  4
5676  5
5677  3
5678  4
5679  10
5680  7
5681  5
5682  1
5683  4
5684  8
5685  3
5686  7
5687  3
5688  5
5689  4
5690  5
5691  10
5692  5
5693  1
5694  4
5695  4
5696  3
5697  9
5698  5
5699  5
5700  3
5701  4
5702  4
5703  5
5704  5
5705  3
5706  7
5707  5
5708  5
5709  7
5710  3
5711  2
5712  2
5713  3
5714  2
5715  6
5716  4
5717  5
5718  4
5719  2
5720  4
5721  4
5722  6
5723  5
5724  4
5725  5
5726  6
5727  9
5728  1
5729  4
5730  4
5731  4
5732  7
5733  5
5734  3
5735  2
5736  2
5737  3
5738  3
5739  2
5740  1
5741  5
5742  6
5743  7
5744  7
5745  5
5746  5
5747  4
5748  7
5749  7
5750  4
5751  6
5752  2
5753  2
5754  7
5755  3
5756  5
5757  6
5758  8
5759  7
5760  4
5761  1
5762  2
5763  8
5764  2
5765  3
5766  1
5767  6
5768  6
5769  4
5770  4
5771  0
5772  3
5773  4
5774  3
5775  6
5776  2
5777  3
5778  4
5779  5
5780  2
5781  2
5782  3
5783  4
5784  3
5785  2
5786  3
5787  3
5788  6
5789  5
5790  5
5791  7
5792  1
5793  7
5794  6
5795  5
5796  4
5797  8
5798  11
5799  2
5800  5
5801  5
5802  4
5803  5
5804  2
5805  4
5806  2
5807  4
5808  2
5809  6
5810  4
5811  6
5812  3
5813  3
5814  3
5815  3
5816  4
5817  2
5818  7
5819  3
5820  4
5821  3
5822  3
5823  2
5824  6
5825  9
5826  2
5827  6
5828  10
5829  2
5830  3
5831  7
5832  4
5833  1
5834  4
5835  3
5836  4
5837  2
5838  11
5839  3
5840  4
5841  6
5842  1
5843  2
5844  4
5845  8
5846  8
5847  4
5848  6
5849  3
5850  4
5851  5
5852  4
5853  4
5854  2
5855  3
5856  5
5857  4
5858  5
5859  9
5860  6
5861  5
5862  2
5863  4
5864  3
5865  3
5866  5
5867  5
5868  7
5869  4
5870  3
5871  4
5872  3
5873  7
5874  6
5875  5
5876  1
5877  4
5878  2
5879  9
5880  5
5881  4
5882  3
5883  8
5884  5
5885  7
5886  4
5887  6
5888  3
5889  3
5890  3
5891  3
5892  4
5893  3
5894  2
5895  5
5896  3
5897  6
5898  6
5899  2
5900  6
5901  3
5902  6
5903  3
5904  1
5905  3
5906  1
5907  3
5908  3
5909  3
5910  4
5911  2
5912  5
5913  7
5914  6
5915  4
5916  4
5917  3
5918  1
5919  2
5920  4
5921  2
5922  5
5923  2
5924  4
5925  7
5926  4
5927  3
5928  3
5929  1
5930  3
5931  0
5932  2
5933  2
5934  3
5935  1
5936  3
5937  3
5938  1
5939  5
5940  1
5941  1
5942  3
5943  0
5944  3
5945  2
5946  3
5947  2
5948  0
5949  6
5950  6
5951  2
5952  1
5953  7
5954  5
5955  2
5956  1
5957  0
5958  3
5959  5
5960  4
5961  0
5962  2
5963  0
5964  3
5965  2
5966  0
5967  2
5968  1
5969  4
5970  4
5971  0
5972  2
5973  3
5974  4
5975  2
5976  1
5977  4
5978  1
5979  3
5980  4
5981  1
5982  4
5983  6
5984  2
5985  5
5986  2
5987  2
5988  2
5989  3
5990  2
5991  2
5992  3
5993  2
5994  3
5995  3
5996  3
5997  1
5998  2
5999  1
6000  4
6001  3
6002  0
6003  2
6004  7
6005  0
6006  0
6007  0
6008  2
6009  1
6010  2
6011  3
6012  5
6013  2
6014  1
6015  2
6016  1
6017  6
6018  1
6019  2
6020  2
6021  0
6022  2
6023  2
6024  0
6025  2
6026  4
6027  5
6028  2
6029  1
6030  3
6031  4
6032  5
6033  4
6034  2
6035  1
6036  1
6037  1
6038  3
6039  1
6040  3
6041  6
6042  3
6043  1
6044  2
6045  3
6046  3
6047  4
6048  6
6049  3
6050  1
6051  2
6052  3
6053  2
6054  3
6055  5
6056  4
6057  4
6058  0
6059  3
6060  2
6061  4
6062  3
6063  1
6064  1
6065  0
6066  3
6067  1
6068  2
6069  2
6070  1
6071  0
6072  2
6073  6
6074  5
6075  1
6076  5
6077  1
6078  2
6079  1
6080  4
6081  0
6082  1
6083  2
6084  0
6085  0
6086  3
6087  3
6088  1
6089  6
6090  3
6091  1
6092  4
6093  1
6094  5
6095  1
6096  3
6097  2
6098  3
6099  1
6100  1
6101  3
6102  1
6103  1
6104  2
6105  2
6106  3
6107  2
6108  2
6109  5
6110  2
6111  0
6112  1
6113  2
6114  3
6115  2
6116  6
6117  2
6118  4
6119  2
6120  2
6121  1
6122  4
6123  4
6124  4
6125  1
6126  4
6127  1
6128  4
6129  2
6130  3
6131  3
6132  5
6133  4
6134  2
6135  1
6136  1
6137  3
6138  1
6139  2
6140  2
6141  4
6142  2
6143  1
6144  0
6145  1
6146  3
6147  4
6148  1
6149  1
6150  3
6151  2
6152  1
6153  1
6154  2
6155  2
6156  2
6157  3
6158  2
6159  0
6160  3
6161  2
6162  4
6163  1
6164  0
6165  2
6166  0
6167  4
6168  2
6169  1
6170  2
6171  2
6172  0
6173  3
6174  4
6175  0
6176  6
6177  4
6178  1
6179  2
6180  0
6181  2
6182  3
6183  5
6184  4
6185  3
6186  4
6187  2
6188  3
6189  5
6190  12
6191  9
6192  16
6193  12
6194  20
6195  31
6196  30
6197  52
6198  77
6199  79
6200  112
6201  116
6202  145
6203  129
6204  144
6205  102
6206  97
6207  77
6208  68
6209  48
6210  27
6211  23
6212  20
6213  12
6214  7
6215  4
6216  2
6217  3
6218  1
6219  1
6220  1
6221  3
6222  2
6223  4
6224  4
6225  3
6226  1
6227  2
6228  1
6229  2
6230  2
6231  2
6232  2
6233  3
6234  0
6235  1
6236  1
6237  1
6238  0
6239  2
6240  2
6241  1
6242  1
6243  2
6244  1
6245  3
6246  0
6247  3
6248  2
6249  1
6250  3
6251  1
6252  0
6253  3
6254  1
6255  4
6256  2
6257  2
6258  1
6259  0
6260  0
6261  1
6262  0
6263  0
6264  0
6265  0
6266  2
6267  0
6268  1
6269  0
6270  2
6271  2
6272  2
6273  3
6274  4
6275  1
6276  2
6277  0
6278  2
6279  1
6280  1
6281  4
6282  2
6283  0
6284  1
6285  0
6286  3
6287  2
6288  0
6289  1
6290  1
6291  3
6292  2
6293  2
6294  1
6295  0
6296  1
6297  3
6298  1
6299  2
6300  1
6301  1
6302  1
6303  1
6304  1
6305  0
6306  3
6307  0
6308  1
6309  2
6310  1
6311  0
6312  1
6313  1
6314  4
6315  1
6316  0
6317  0
6318  1
6319  0
6320  0
6321  1
6322  1
6323  0
6324  2
6325  3
6326  1
6327  0
6328  2
6329  2
6330  2
6331  0
6332  1
6333  1
6334  1
6335  0
6336  3
6337  1
6338  1
6339  0
6340  3
6341  2
6342  0
6343  1
6344  0
6345  1
6346  1
6347  2
6348  0
6349  0
6350  1
6351  0
6352  2
6353  0
6354  1
6355  1
6356  2
6357  1
6358  3
6359  1
6360  1
6361  2
6362  0
6363  1
6364  0
6365  1
6366  3
6367  0
6368  1
6369  1
6370  0
6371  1
6372  1
6373  1
6374  1
6375  0
6376  1
6377  3
6378  0
6379  0
6380  1
6381  1
6382  1
6383  3
6384  3
6385  0
6386  0
6387  1
6388  1
6389  3
6390  2
6391  2
6392  0
6393  2
6394  0
6395  1
6396  0
6397  1
6398  2
6399  0
6400  0
6401  1
6402  0
6403  2
6404  1
6405  1
6406  1
6407  1
6408  1
6409  1
6410  0
6411  2
6412  0
6413  3
6414  0
6415  1
6416  0
6417  0
6418  1
6419  1
6420  0
6421  1
6422  1
6423  0
6424  1
6425  0
6426  1
6427  1
6428  0
6429  0
6430  1
6431  1
6432  1
6433  1
6434  2
6435  1
6436  1
6437  2
6438  2
6439  0
6440  1
6441  0
6442  0
6443  0
6444  0
6445  0
6446  0
6447  1
6448  0
6449  0
6450  0
6451  0
6452  0
6453  0
6454  1
6455  1
6456  1
6457  3
6458  0
6459  0
6460  1
6461  1
6462  1
6463  2
6464  1
6465  1
6466  0
6467  0
6468  2
6469  0
6470  0
6471  1
6472  0
6473  1
6474  0
6475  1
6476  1
6477  0
6478  2
6479  0
6480  0
6481  0
6482  0
6483  0
6484  1
6485  1
6486  4
6487  1
6488  1
6489  0
6490  0
6491  0
6492  1
6493  0
6494  0
6495  1
6496  2
6497  1
6498  0
6499  0
6500  2
6501  3
6502  1
6503  2
6504  1
6505  0
6506  0
6507  0
6508  0
6509  0
6510  2
6511  1
6512  1
6513  1
6514  1
6515  0
6516  1
6517  0
6518  0
6519  0
6520  3
6521  0
6522  1
6523  0
6524  1
6525  4
6526  0
6527  1
6528  0
6529  0
6530  0
6531  1
6532  1
6533  1
6534  2
6535  1
6536  1
6537  3
6538  0
6539  0
6540  1
6541  0
6542  2
6543  0
6544  2
6545  2
6546  0
6547  2
6548  2
6549  0
6550  0
6551  1
6552  0
6553  0
6554  1
6555  0
6556  0
6557  0
6558  1
6559  1
6560  1
6561  0
6562  0
6563  1
6564  0
6565  0
6566  2
6567  0
6568  2
6569  1
6570  0
6571  0
6572  0
6573  1
6574  0
6575  1
6576  3
6577  0
6578  0
6579  4
6580  3
6581  1
6582  0
6583  0
6584  0
6585  1
6586  0
6587  1
6588  0
6589  0
6590  0
6591  0
6592  0
6593  1
6594  2
6595  0
6596  0
6597  1
6598  1
6599  0
6600  2
6601  0
6602  0
6603  1
6604  2
6605  1
6606  0
6607  0
6608  1
6609  1
6610  0
6611  0
6612  0
6613  0
6614  0
6615  0
6616  3
6617  1
6618  0
6619  0
6620  0
6621  0
6622  0
6623  0
6624  4
6625  0
6626  0
6627  1
6628  1
6629  0
6630  1
6631  0
6632  0
6633  3
6634  0
6635  2
6636  0
6637  1
6638  0
6639  1
6640  1
6641  2
6642  0
6643  1
6644  1
6645  0
6646  0
6647  2
6648  1
6649  0
6650  0
6651  1
6652  1
6653  2
6654  2
6655  0
6656  0
6657  0
6658  0
6659  1
6660  0
6661  1
6662  0
6663  3
6664  2
6665  3
6666  0
6667  0
6668  0
6669  0
6670  1
6671  0
6672  0
6673  0
6674  1
6675  2
6676  1
6677  0
6678  2
6679  0
6680  1
6681  0
6682  0
6683  1
6684  0
6685  1
6686  1
6687  0
6688  1
6689  0
6690  0
6691  0
6692  1
6693  0
6694  0
6695  2
6696  0
6697  0
6698  1
6699  0
6700  0
6701  0
6702  0
6703  0
6704  0
6705  0
6706  0
6707  0
6708  0
6709  0
6710  1
6711  2
6712  0
6713  1
6714  1
6715  0
6716  2
6717  0
6718  0
6719  1
6720  1
6721  0
6722  0
6723  0
6724  0
6725  0
6726  2
6727  0
6728  0
6729  0
6730  1
6731  0
6732  0
6733  0
6734  0
6735  0
6736  0
6737  1
6738  0
6739  0
6740  0
6741  1
6742  0
6743  0
6744  1
6745  0
6746  0
6747  0
6748  0
6749  0
6750  1
6751  0
6752  0
6753  1
6754  0
6755  0
6756  0
6757  0
6758  0
6759  0
6760  0
6761  2
6762  0
6763  1
6764  0
6765  0
6766  0
6767  1
6768  1
6769  0
6770  0
6771  0
6772  0
6773  0
6774  2
6775  0
6776  0
6777  0
6778  0
6779  2
6780  0
6781  1
6782  0
6783  0
6784  1
6785  0
6786  0
6787  0
6788  0
6789  1
6790  0
6791  0
6792  0
6793  1
6794  0
6795  1
6796  0
6797  1
6798  0
6799  0
6800  0
6801  0
6802  0
6803  0
6804  0
6805  1
6806  0
6807  0
6808  1
6809  0
6810  0
6811  1
6812  1
6813  0
6814  1
6815  0
6816  1
6817  1
6818  2
6819  0
6820  0
6821  0
6822  0
6823  0
6824  2
6825  1
6826  2
6827  1
6828  0
6829  0
6830  0
6831  2
6832  0
6833  0
6834  0
6835  1
6836  0
6837  0
6838  1
6839  0
6840  0
6841  0
6842  0
6843  1
6844  1
6845  0
6846  0
6847  0
6848  1
6849  0
6850  0
6851  0
6852  0
6853  0
6854  1
6855  0
6856  0
6857  0
6858  0
6859  1
6860  0
6861  0
6862  1
6863  0
6864  0
6865  0
6866  0
6867  1
6868  0
6869  0
6870  1
6871  0
6872  0
6873  0
6874  0
6875  0
6876  0
6877  0
6878  0
6879  0
6880  0
6881  0
6882  0
6883  0
6884  0
6885  1
6886  0
6887  1
6888  0
6889  0
6890  3
6891  2
6892  1
6893  1
6894  1
6895  0
6896  0
6897  0
6898  0
6899  0
6900  1
6901  0
6902  3
6903  1
6904  1
6905  0
6906  0
6907  0
6908  0
6909  0
6910  1
6911  0
6912  1
6913  0
6914  0
6915  0
6916  0
6917  0
6918  0
6919  0
6920  0
6921  0
6922  0
6923  0
6924  0
6925  1
6926  0
6927  0
6928  1
6929  2
6930  0
6931  1
6932  1
6933  2
6934  0
6935  1
6936  1
6937  1
6938  0
6939  1
6940  1
6941  0
6942  1
6943  0
6944  1
6945  1
6946  2
6947  0
6948  0
6949  0
6950  1
6951  0
6952  1
6953  1
6954  0
6955  0
6956  0
6957  0
6958  0
6959  0
6960  0
6961  2
6962  0
6963  1
6964  0
6965  1
6966  2
6967  0
6968  0
6969  0
6970  0
6971  1
6972  0
6973  2
6974  0
6975  1
6976  0
6977  0
6978  0
6979  0
6980  1
6981  1
6982  0
6983  0
6984  1
6985  0
6986  1
6987  2
6988  0
6989  1
6990  0
6991  0
6992  0
6993  0
6994  1
6995  3
6996  0
6997  1
6998  0
6999  0
7000  1
7001  0
7002  0
7003  0
7004  0
7005  2
7006  1
7007  1
7008  2
7009  4
7010  4
7011  7
7012  3
7013  4
7014  9
7015  15
7016  20
7017  19
7018  23
7019  28
7020  49
7021  60
7022  72
7023  65
7024  83
7025  98
7026  120
7027  115
7028  99
7029  80
7030  63
7031  56
7032  58
7033  36
7034  22
7035  11
7036  6
7037  5
7038  1
7039  2
7040  1
7041  0
7042  0
7043  0
7044  1
7045  0
7046  0
7047  0
7048  1
7049  0
7050  0
7051  0
7052  0
7053  0
7054  0
7055  0
7056  0
7057  2
7058  2
7059  1
7060  1
7061  0
7062  0
7063  1
7064  0
7065  0
7066  1
7067  0
7068  0
7069  0
7070  0
7071  0
7072  1
7073  0
7074  1
7075  0
7076  1
7077  0
7078  0
7079  0
7080  0
7081  0
7082  0
7083  0
7084  0
7085  0
7086  0
7087  0
7088  0
7089  1
7090  0
7091  0
7092  0
7093  0
7094  0
7095  0
7096  1
7097  0
7098  0
7099  0
7100  1
7101  0
7102  0
7103  0
7104  0
7105  0
7106  0
7107  0
7108  1
7109  0
7110  0
7111  0
7112  1
7113  0
7114  1
7115  0
7116  0
7117  0
7118  0
7119  0
7120  1
7121  0
7122  0
7123  0
7124  0
7125  0
7126  0
7127  0
7128  0
7129  1
7130  1
7131  0
7132  0
7133  0
7134  1
7135  0
7136  0
7137  0
7138  0
7139  0
7140  0
7141  0
7142  0
7143  0
7144  0
7145  1
7146  0
7147  0
7148  0
7149  1
7150  0
7151  0
7152  0
7153  0
7154  0
7155  0
7156  0
7157  0
7158  0
7159  0
7160  0
7161  0
7162  1
7163  0
7164  0
7165  0
7166  0
7167  0
7168  0
7169  0
7170  0
7171  0
7172  0
7173  0
7174  0
7175  0
7176  0
7177  0
7178  0
7179  0
7180  0
7181  0
7182  0
7183  0
7184  0
7185  0
7186  0
7187  1
7188  0
7189  0
7190  0
7191  0
7192  0
7193  0
7194  0
7195  0
7196  0
7197  0
7198  0
7199  0
7200  0
7201  0
7202  0
7203  0
7204  0
7205  0
7206  0
7207  0
7208  0
7209  0
7210  0
7211  0
7212  0
7213  0
7214  0
7215  0
7216  0
7217  1
7218  0
7219  0
7220  0
7221  0
7222  0
7223  1
7224  0
7225  0
7226  0
7227  0
7228  0
7229  0
7230  1
7231  0
7232  0
7233  0
7234  0
7235  0
7236  0
7237  0
7238  0
7239  0
7240  0
7241  0
7242  0
7243  0
7244  0
7245  0
7246  0
7247  0
7248  0
7249  0
7250  0
7251  0
7252  0
7253  0
7254  0
7255  0
7256  0
7257  2
7258  0
7259  0
7260  0
7261  0
7262  0
7263  0
7264  0
7265  0
7266  0
7267  0
7268  0
7269  0
7270  0
7271  0
7272  0
7273  0
7274  0
7275  0
7276  0
7277  0
7278  0
7279  0
7280  0
7281  1
7282  0
7283  0
7284  0
7285  0
7286  1
7287  0
7288  0
7289  0
7290  0
7291  0
7292  0
7293  0
7294  0
7295  0
7296  0
7297  0
7298  0
7299  0
7300  0
7301  0
7302  0
7303  0
7304  0
7305  0
7306  0
7307  0
7308  0
7309  0
7310  0
7311  0
7312  0
7313  0
7314  0
7315  0
7316  0
7317  0
7318  0
7319  0
7320  0
7321  0
7322  0
7323  0
7324  0
7325  0
7326  0
7327  1
7328  0
7329  0
7330  0
7331  0
7332  0
7333  0
7334  0
7335  0
7336  0
7337  0
7338  0
7339  0
7340  0
7341  0
7342  0
7343  0
7344  0
7345  0
7346  0
7347  0
7348  1
7349  0
7350  0
7351  0
7352  1
7353  0
7354  0
7355  0
7356  0
7357  0
7358  0
7359  0
7360  0
7361  0
7362  0
7363  0
7364  0
7365  0
7366  0
7367  0
7368  0
7369  0
7370  0
7371  1
7372  0
7373  0
7374  0
7375  0
7376  0
7377  0
7378  0
7379  0
7380  0
7381  0
7382  1
7383  0
7384  0
7385  1
7386  0
7387  0
7388  0
7389  0
7390  0
7391  0
7392  0
7393  0
7394  0
7395  0
7396  0
7397  0
7398  1
7399  0
7400  0
7401  0
7402  0
7403  0
7404  1
7405  0
7406  0
7407  0
7408  0
7409  0
7410  0
7411  0
7412  0
7413  0
7414  0
7415  0
7416  1
7417  0
7418  0
7419  0
7420  0
7421  0
7422  0
7423  0
7424  0
7425  0
7426  0
7427  0
7428  0
7429  0
7430  0
7431  0
7432  0
7433  0
7434  0
7435  0
7436  0
7437  0
7438  0
7439  1
7440  0
7441  0
7442  0
7443  0
7444  0
7445  0
7446  0
7447  0
7448  0
7449  0
7450  0
7451  0
7452  0
7453  0
7454  0
7455  0
7456  0
7457  0
7458  1
7459  0
7460  0
7461  0
7462  0
7463  0
7464  0
7465  0
7466  0
7467  0
7468  0
7469  0
7470  0
7471  0
7472  0
7473  0
7474  0
7475  0
7476  0
7477  0
7478  1
7479  0
7480  0
7481  0
7482  0
7483  0
7484  0
7485  0
7486  1
7487  0
7488  0
7489  0
7490  0
7491  0
7492  0
7493  0
7494  0
7495  1
7496  0
7497  0
7498  0
7499  0
7500  0
7501  0
7502  0
7503  0
7504  0
7505  0
7506  0
7507  1
7508  0
7509  0
7510  0
7511  0
7512  0
7513  0
7514  1
7515  0
7516  0
7517  0
7518  1
7519  0
7520  0
7521  0
7522  0
7523  0
7524  0
7525  0
7526  0
7527  0
7528  0
7529  0
7530  0
7531  0
7532  0
7533  0
7534  0
7535  0
7536  0
7537  0
7538  0
7539  0
7540  0
7541  0
7542  0
7543  0
7544  0
7545  0
7546  0
7547  0
7548  0
7549  0
7550  0
7551  1
7552  0
7553  0
7554  0
7555  0
7556  0
7557  0
7558  0
7559  0
7560  0
7561  0
7562  0
7563  0
7564  0
7565  0
7566  0
7567  0
7568  1
7569  0
7570  0
7571  0
7572  0
7573  0
7574  0
7575  0
7576  0
7577  0
7578  0
7579  0
7580  0
7581  0
7582  1
7583  0
7584  0
7585  0
7586  0
7587  0
7588  0
7589  0
7590  0
7591  0
7592  1
7593  0
7594  0
7595  0
7596  0
7597  0
7598  1
7599  0
7600  0
7601  0
7602  0
7603  0
7604  0
7605  1
7606  0
7607  0
7608  0
7609  0
7610  0
7611  0
7612  0
7613  0
7614  0
7615  0
7616  0
7617  0
7618  0
7619  0
7620  0
7621  0
7622  0
7623  0
7624  0
7625  0
7626  0
7627  0
7628  0
7629  0
7630  0
7631  0
7632  0
7633  1
7634  0
7635  1
7636  1
7637  0
7638  0
7639  0
7640  0
7641  0
7642  0
7643  0
7644  0
7645  0
7646  0
7647  1
7648  1
7649  0
7650  0
7651  0
7652  0
7653  0
7654  0
7655  0
7656  0
7657  0
7658  0
7659  0
7660  0
7661  0
7662  0
7663  0
7664  0
7665  0
7666  0
7667  0
7668  0
7669  0
7670  0
7671  0
7672  0
7673  0
7674  0
7675  0
7676  0
7677  0
7678  0
7679  0
7680  1
7681  1
7682  1
7683  2
7684  2
7685  3
7686  2
7687  4
7688  5
7689  3
7690  4
7691  1
7692  1
7693  4
7694  1
7695  0
7696  1
7697  0
7698  1
7699  0
7700  0
7701  0
7702  0
7703  0
7704  0
7705  0
7706  0
7707  0
7708  0
7709  0
7710  0
7711  0
7712  0
7713  0
7714  0
7715  0
7716  0
7717  0
7718  0
7719  0
7720  0
7721  0
7722  1
7723  0
7724  0
7725  0
7726  0
7727  0
7728  0
7729  0
7730  0
7731  0
7732  0
7733  0
7734  0
7735  0
7736  0
7737  0
7738  0
7739  0
7740  0
7741  0
7742  0
7743  0
7744  0
7745  0
7746  0
7747  0
7748  0
7749  0
7750  0
7751  0
7752  0
7753  0
7754  0
7755  1
7756  0
7757  0
7758  0
7759  0
7760  0
7761  0
7762  0
7763  0
7764  0
7765  0
7766  0
7767  1
7768  0
7769  0
7770  0
7771  0
7772  0
7773  0
7774  0
7775  0
7776  0
7777  0
7778  0
7779  0
7780  0
7781  0
7782  0
7783  0
7784  0
7785  0
7786  0
7787  0
7788  0
7789  0
7790  1
7791  0
7792  0
7793  0
7794  0
7795  0
7796  0
7797  0
7798  0
7799  0
7800  1
7801  0
7802  0
7803  0
7804  0
7805  0
7806  0
7807  0
7808  0
7809  0
7810  0
7811  0
7812  0
7813  0
7814  1
7815  0
7816  0
7817  0
7818  0
7819  0
7820  0
7821  0
7822  0
7823  0
7824  0
7825  0
7826  0
7827  0
7828  0
7829  0
7830  0
7831  0
7832  0
7833  0
7834  0
7835  0
7836  0
7837  0
7838  0
7839  0
7840  0
7841  0
7842  0
7843  0
7844  0
7845  0
7846  0
7847  0
7848  1
7849  0
7850  0
7851  0
7852  0
7853  0
7854  0
7855  0
7856  0
7857  0
7858  0
7859  0
7860  0
7861  0
7862  0
7863  0
7864  0
7865  0
7866  0
7867  0
7868  0
7869  0
7870  1
7871  0
7872  0
7873  0
7874  0
7875  0
7876  1
7877  0
7878  0
7879  0
7880  0
7881  0
7882  0
7883  0
7884  0
7885  0
7886  0
7887  1
7888  0
7889  0
7890  0
7891  0
7892  0
7893  0
7894  0
7895  0
7896  0
7897  0
7898  0
7899  0
7900  0
7901  0
7902  0
7903  0
7904  0
7905  0
7906  0
7907  0
7908  0
7909  0
7910  0
7911  0
7912  0
7913  0
7914  0
7915  0
7916  0
7917  0
7918  0
7919  0
7920  0
7921  0
7922  0
7923  0
7924  0
7925  0
7926  0
7927  0
7928  0
7929  0
7930  0
7931  0
7932  0
7933  0
7934  0
7935  0
7936  1
7937  0
7938  0
7939  0
7940  0
7941  0
7942  0
7943  1
7944  0
7945  0
7946  0
7947  0
7948  0
7949  0
7950  0
7951  0
7952  0
7953  0
7954  0
7955  0
7956  0
7957  0
7958  0
7959  0
7960  0
7961  0
7962  0
7963  0
7964  0
7965  0
7966  0
7967  1
7968  0
7969  0
7970  0
7971  0
7972  0
7973  0
7974  0
7975  0
7976  0
7977  0
7978  0
7979  0
7980  0
7981  0
7982  0
7983  0
7984  0
7985  0
7986  0
7987  0
7988  0
7989  0
7990  0
7991  0
7992  0
7993  0
7994  0
7995  0
7996  0
7997  0
7998  0
7999  0
8000  0
8001  0
8002  0
8003  0
8004  0
8005  0
8006  0
8007  0
8008  0
8009  0
8010  0
8011  0
8012  0
8013  0
8014  0
8015  0
8016  0
8017  0
8018  0
8019  0
8020  0
8021  0
8022  0
8023  0
8024  0
8025  0
8026  0
8027  0
8028  0
8029  0
8030  1
8031  0
8032  1
8033  0
8034  0
8035  0
8036  2
8037  0
8038  0
8039  0
8040  0
8041  1
8042  0
8043  0
8044  0
8045  0
8046  0
8047  1
8048  0
8049  0
8050  0
8051  0
8052  0
8053  0
8054  0
8055  0
8056  0
8057  0
8058  0
8059  0
8060  0
8061  0
8062  0
8063  0
8064  0
8065  0
8066  0
8067  0
8068  0
8069  0
8070  0
8071  0
8072  0
8073  0
8074  0
8075  0
8076  0
8077  0
8078  0
8079  0
8080  0
8081  0
8082  0
8083  0
8084  0
8085  0
8086  0
8087  0
8088  0
8089  0
8090  0
8091  0
8092  0
8093  0
8094  0
8095  0
8096  1
8097  0
8098  0
8099  1
8100  0
8101  1
8102  0
8103  0
8104  0
8105  0
8106  0
8107  0
8108  0
8109  0
8110  0
8111  0
8112  0
8113  0
8114  0
8115  0
8116  0
8117  0
8118  0
8119  0
8120  0
8121  0
8122  0
8123  0
8124  0
8125  0
8126  0
8127  0
8128  0
8129  0
8130  1
8131  0
8132  0
8133  0
8134  0
8135  0
8136  0
8137  0
8138  0
8139  0
8140  0
8141  0
8142  0
8143  0
8144  0
8145  0
8146  0
8147  0
8148  0
8149  0
8150  0
8151  0
8152  0
8153  0
8154  0
8155  0
8156  0
8157  0
8158  0
8159  0
8160  0
8161  0
8162  0
8163  0
8164  0
8165  0
8166  0
8167  0
8168  0
8169  0
8170  0
8171  0
8172  0
8173  0
8174  0
8175  1
8176  0
8177  0
8178  0
8179  0
8180  0
8181  0
8182  0
8183  0
8184  0
8185  0
8186  0
8187  0
8188  0
8189  0
8190  0
8191  0
