0  3
1  0
2  0
3  0
4  0
5  0
6  0
7  0
8  0
9  0
10  0
11  0
12  0
13  0
14  0
15  0
16  0
17  0
18  0
19  0
20  0
21  0
22  0
23  0
24  0
25  0
26  0
27  0
28  0
29  1
30  0
31  0
32  0
33  0
34  0
35  0
36  0
37  0
38  0
39  0
40  0
41  0
42  0
43  0
44  0
45  0
46  0
47  0
48  0
49  0
50  0
51  0
52  0
53  0
54  0
55  0
56  0
57  0
58  0
59  0
60  0
61  0
62  0
63  0
64  0
65  0
66  0
67  0
68  0
69  0
70  0
71  0
72  0
73  0
74  0
75  0
76  0
77  0
78  0
79  0
80  0
81  0
82  0
83  0
84  0
85  0
86  0
87  0
88  0
89  0
90  0
91  0
92  0
93  0
94  0
95  0
96  0
97  0
98  0
99  0
100  0
101  0
102  0
103  0
104  0
105  0
106  0
107  0
108  0
109  0
110  0
111  0
112  0
113  0
114  0
115  0
116  0
117  0
118  0
119  0
120  0
121  0
122  0
123  0
124  0
125  0
126  0
127  0
128  0
129  0
130  0
131  0
132  0
133  1
134  0
135  0
136  0
137  0
138  0
139  0
140  0
141  0
142  0
143  0
144  0
145  0
146  0
147  0
148  0
149  0
150  0
151  0
152  0
153  0
154  0
155  0
156  0
157  0
158  0
159  0
160  0
161  0
162  0
163  0
164  0
165  0
166  0
167  0
168  0
169  0
170  0
171  0
172  0
173  0
174  0
175  0
176  0
177  0
178  0
179  0
180  0
181  0
182  0
183  0
184  0
185  0
186  0
187  0
188  0
189  0
190  0
191  0
192  0
193  0
194  0
195  0
196  0
197  0
198  0
199  0
200  0
201  0
202  0
203  0
204  0
205  0
206  0
207  0
208  0
209  0
210  0
211  1
212  0
213  0
214  0
215  0
216  0
217  0
218  0
219  0
220  0
221  1
222  0
223  0
224  0
225  0
226  0
227  0
228  0
229  0
230  0
231  0
232  0
233  0
234  0
235  0
236  0
237  0
238  0
239  0
240  0
241  0
242  2
243  0
244  0
245  0
246  0
247  0
248  0
249  0
250  0
251  0
252  2
253  0
254  3
255  4
256  8
257  2
258  10
259  3
260  3
261  11
262  14
263  6
264  14
265  14
266  11
267  20
268  26
269  23
270  27
271  31
272  31
273  27
274  32
275  53
276  43
277  46
278  44
279  56
280  41
281  33
282  45
283  56
284  63
285  50
286  79
287  61
288  67
289  66
290  77
291  71
292  69
293  68
294  74
295  87
296  59
297  79
298  74
299  88
300  106
301  69
302  75
303  80
304  97
305  94
306  96
307  95
308  94
309  80
310  97
311  106
312  101
313  109
314  89
315  102
316  100
317  101
318  109
319  127
320  123
321  118
322  126
323  122
324  125
325  139
326  93
327  108
328  123
329  123
330  128
331  109
332  114
333  109
334  116
335  122
336  131
337  132
338  105
339  108
340  120
341  127
342  114
343  114
344  115
345  112
346  127
347  120
348  117
349  115
350  118
351  119
352  121
353  107
354  135
355  119
356  121
357  131
358  128
359  112
360  122
361  122
362  100
363  106
364  126
365  112
366  141
367  113
368  106
369  123
370  107
371  128
372  132
373  116
374  125
375  128
376  123
377  126
378  139
379  112
380  133
381  109
382  130
383  134
384  101
385  114
386  112
387  128
388  107
389  122
390  118
391  148
392  141
393  135
394  117
395  135
396  130
397  119
398  125
399  133
400  134
401  132
402  114
403  149
404  144
405  134
406  150
407  145
408  116
409  117
410  144
411  140
412  137
413  136
414  127
415  125
416  122
417  145
418  133
419  128
420  134
421  127
422  136
423  134
424  132
425  131
426  120
427  123
428  153
429  129
430  120
431  129
432  171
433  153
434  137
435  154
436  138
437  140
438  140
439  138
440  125
441  107
442  127
443  140
444  141
445  132
446  129
447  142
448  139
449  123
450  143
451  141
452  125
453  146
454  156
455  128
456  155
457  135
458  145
459  123
460  148
461  138
462  135
463  135
464  118
465  142
466  117
467  125
468  170
469  149
470  140
471  161
472  142
473  144
474  128
475  132
476  136
477  124
478  143
479  142
480  174
481  134
482  165
483  135
484  139
485  157
486  158
487  151
488  137
489  166
490  152
491  158
492  155
493  160
494  130
495  149
496  143
497  151
498  143
499  156
500  165
501  178
502  161
503  177
504  146
505  143
506  152
507  156
508  152
509  136
510  143
511  163
512  160
513  153
514  158
515  153
516  174
517  152
518  174
519  150
520  162
521  160
522  177
523  156
524  156
525  154
526  144
527  139
528  183
529  153
530  148
531  177
532  167
533  180
534  150
535  169
536  186
537  162
538  153
539  156
540  170
541  159
542  157
543  162
544  178
545  166
546  189
547  176
548  183
549  193
550  168
551  175
552  157
553  169
554  178
555  182
556  178
557  166
558  172
559  195
560  156
561  191
562  194
563  183
564  175
565  197
566  217
567  214
568  179
569  205
570  190
571  192
572  199
573  203
574  188
575  183
576  192
577  194
578  191
579  183
580  166
581  204
582  193
583  204
584  212
585  203
586  208
587  192
588  213
589  207
590  197
591  191
592  191
593  182
594  212
595  226
596  212
597  205
598  202
599  211
600  207
601  213
602  198
603  199
604  226
605  213
606  211
607  209
608  210
609  200
610  185
611  161
612  225
613  190
614  191
615  200
616  171
617  204
618  227
619  180
620  193
621  195
622  219
623  212
624  186
625  211
626  214
627  203
628  227
629  200
630  210
631  214
632  191
633  194
634  203
635  208
636  214
637  205
638  208
639  194
640  208
641  233
642  215
643  228
644  214
645  203
646  216
647  200
648  215
649  231
650  210
651  199
652  208
653  212
654  200
655  219
656  213
657  221
658  198
659  197
660  199
661  221
662  211
663  207
664  236
665  229
666  233
667  216
668  215
669  232
670  229
671  229
672  242
673  198
674  216
675  208
676  218
677  245
678  254
679  215
680  212
681  204
682  223
683  249
684  219
685  235
686  257
687  217
688  218
689  234
690  233
691  236
692  235
693  243
694  233
695  241
696  269
697  251
698  197
699  244
700  264
701  218
702  262
703  224
704  215
705  272
706  254
707  247
708  259
709  246
710  243
711  247
712  243
713  218
714  220
715  225
716  223
717  246
718  240
719  238
720  259
721  247
722  237
723  261
724  244
725  243
726  241
727  256
728  234
729  252
730  241
731  234
732  278
733  229
734  256
735  245
736  241
737  289
738  302
739  271
740  267
741  261
742  241
743  265
744  229
745  272
746  269
747  250
748  328
749  320
750  470
751  808
752  1450
753  2584
754  4512
755  6365
756  7743
757  7606
758  6224
759  4286
760  2387
761  1169
762  590
763  351
764  276
765  221
766  227
767  203
768  171
769  171
770  205
771  163
772  184
773  207
774  174
775  196
776  186
777  190
778  169
779  167
780  182
781  169
782  171
783  165
784  181
785  171
786  198
787  165
788  200
789  164
790  160
791  167
792  173
793  181
794  139
795  166
796  172
797  173
798  195
799  178
800  152
801  172
802  180
803  176
804  154
805  155
806  190
807  160
808  179
809  169
810  154
811  184
812  185
813  182
814  178
815  159
816  166
817  155
818  160
819  204
820  174
821  172
822  168
823  164
824  170
825  158
826  157
827  163
828  163
829  192
830  178
831  168
832  175
833  164
834  160
835  165
836  186
837  170
838  155
839  151
840  162
841  153
842  218
843  154
844  178
845  143
846  179
847  185
848  178
849  158
850  155
851  166
852  139
853  146
854  167
855  182
856  145
857  165
858  171
859  162
860  171
861  185
862  157
863  164
864  185
865  158
866  182
867  147
868  189
869  164
870  190
871  149
872  180
873  157
874  175
875  158
876  165
877  164
878  144
879  161
880  158
881  170
882  164
883  155
884  143
885  189
886  180
887  168
888  167
889  149
890  158
891  175
892  158
893  166
894  153
895  153
896  163
897  161
898  144
899  163
900  173
901  159
902  162
903  172
904  140
905  157
906  180
907  155
908  170
909  139
910  169
911  166
912  179
913  159
914  163
915  150
916  167
917  175
918  171
919  160
920  154
921  173
922  160
923  166
924  163
925  172
926  155
927  157
928  151
929  167
930  147
931  147
932  143
933  164
934  145
935  159
936  150
937  147
938  143
939  144
940  154
941  158
942  158
943  156
944  176
945  140
946  150
947  181
948  147
949  158
950  190
951  141
952  158
953  162
954  155
955  162
956  183
957  150
958  173
959  153
960  170
961  153
962  147
963  137
964  151
965  168
966  159
967  144
968  146
969  136
970  163
971  111
972  154
973  150
974  160
975  147
976  151
977  129
978  130
979  171
980  131
981  157
982  154
983  158
984  144
985  130
986  151
987  149
988  147
989  146
990  147
991  162
992  154
993  156
994  159
995  128
996  145
997  146
998  148
999  143
1000  145
1001  161
1002  133
1003  134
1004  147
1005  162
1006  126
1007  138
1008  166
1009  146
1010  140
1011  153
1012  153
1013  113
1014  125
1015  148
1016  137
1017  158
1018  145
1019  131
1020  140
1021  149
1022  152
1023  130
1024  159
1025  142
1026  156
1027  129
1028  145
1029  130
1030  117
1031  133
1032  138
1033  153
1034  150
1035  146
1036  136
1037  143
1038  143
1039  159
1040  150
1041  152
1042  126
1043  122
1044  154
1045  148
1046  137
1047  160
1048  149
1049  143
1050  155
1051  138
1052  131
1053  137
1054  133
1055  145
1056  139
1057  130
1058  146
1059  140
1060  135
1061  153
1062  157
1063  158
1064  138
1065  161
1066  140
1067  121
1068  153
1069  137
1070  143
1071  137
1072  128
1073  137
1074  132
1075  105
1076  110
1077  123
1078  140
1079  164
1080  135
1081  123
1082  137
1083  130
1084  133
1085  131
1086  146
1087  129
1088  145
1089  135
1090  125
1091  145
1092  169
1093  150
1094  166
1095  145
1096  151
1097  125
1098  156
1099  142
1100  130
1101  124
1102  138
1103  131
1104  136
1105  144
1106  123
1107  139
1108  151
1109  125
1110  121
1111  129
1112  126
1113  141
1114  120
1115  163
1116  149
1117  124
1118  136
1119  133
1120  148
1121  126
1122  127
1123  124
1124  125
1125  135
1126  135
1127  128
1128  128
1129  141
1130  134
1131  124
1132  149
1133  124
1134  136
1135  122
1136  132
1137  119
1138  109
1139  128
1140  155
1141  113
1142  120
1143  145
1144  148
1145  131
1146  131
1147  140
1148  138
1149  137
1150  133
1151  144
1152  107
1153  130
1154  114
1155  116
1156  137
1157  121
1158  125
1159  121
1160  129
1161  131
1162  111
1163  131
1164  114
1165  125
1166  124
1167  104
1168  112
1169  105
1170  110
1171  110
1172  115
1173  121
1174  96
1175  122
1176  130
1177  134
1178  103
1179  122
1180  118
1181  97
1182  109
1183  112
1184  132
1185  133
1186  101
1187  94
1188  97
1189  128
1190  110
1191  112
1192  107
1193  127
1194  120
1195  108
1196  108
1197  118
1198  105
1199  122
1200  113
1201  109
1202  112
1203  110
1204  100
1205  107
1206  95
1207  120
1208  95
1209  99
1210  100
1211  99
1212  106
1213  124
1214  117
1215  135
1216  107
1217  97
1218  97
1219  118
1220  106
1221  95
1222  89
1223  102
1224  107
1225  117
1226  100
1227  102
1228  104
1229  95
1230  106
1231  104
1232  99
1233  108
1234  121
1235  100
1236  118
1237  94
1238  109
1239  109
1240  102
1241  80
1242  112
1243  86
1244  100
1245  108
1246  104
1247  95
1248  93
1249  115
1250  112
1251  106
1252  96
1253  105
1254  112
1255  101
1256  119
1257  110
1258  99
1259  98
1260  99
1261  110
1262  82
1263  97
1264  94
1265  105
1266  94
1267  94
1268  101
1269  88
1270  85
1271  98
1272  95
1273  100
1274  90
1275  89
1276  91
1277  113
1278  100
1279  116
1280  92
1281  84
1282  85
1283  83
1284  88
1285  97
1286  109
1287  77
1288  104
1289  96
1290  93
1291  88
1292  100
1293  107
1294  94
1295  111
1296  110
1297  94
1298  77
1299  87
1300  94
1301  103
1302  104
1303  76
1304  87
1305  105
1306  109
1307  87
1308  108
1309  97
1310  79
1311  80
1312  88
1313  97
1314  97
1315  90
1316  92
1317  81
1318  82
1319  80
1320  91
1321  80
1322  80
1323  72
1324  84
1325  85
1326  92
1327  92
1328  90
1329  94
1330  103
1331  94
1332  95
1333  79
1334  94
1335  78
1336  90
1337  85
1338  109
1339  77
1340  92
1341  99
1342  84
1343  97
1344  89
1345  96
1346  79
1347  92
1348  81
1349  66
1350  82
1351  98
1352  97
1353  88
1354  125
1355  93
1356  94
1357  100
1358  86
1359  99
1360  85
1361  104
1362  90
1363  103
1364  115
1365  136
1366  141
1367  137
1368  141
1369  143
1370  126
1371  100
1372  93
1373  106
1374  86
1375  86
1376  76
1377  82
1378  98
1379  85
1380  100
1381  98
1382  103
1383  117
1384  122
1385  98
1386  89
1387  95
1388  78
1389  101
1390  112
1391  94
1392  146
1393  201
1394  325
1395  469
1396  742
1397  916
1398  1107
1399  1102
1400  954
1401  724
1402  453
1403  263
1404  159
1405  105
1406  80
1407  75
1408  82
1409  82
1410  84
1411  84
1412  94
1413  80
1414  79
1415  84
1416  88
1417  83
1418  91
1419  91
1420  81
1421  78
1422  68
1423  69
1424  66
1425  74
1426  75
1427  83
1428  97
1429  66
1430  72
1431  77
1432  93
1433  83
1434  74
1435  82
1436  92
1437  85
1438  85
1439  78
1440  73
1441  82
1442  81
1443  79
1444  71
1445  81
1446  67
1447  75
1448  73
1449  81
1450  51
1451  71
1452  70
1453  77
1454  69
1455  69
1456  81
1457  69
1458  69
1459  64
1460  72
1461  50
1462  79
1463  85
1464  86
1465  60
1466  75
1467  72
1468  83
1469  69
1470  65
1471  72
1472  71
1473  77
1474  65
1475  72
1476  70
1477  78
1478  54
1479  63
1480  67
1481  71
1482  64
1483  65
1484  60
1485  74
1486  69
1487  66
1488  63
1489  76
1490  61
1491  60
1492  80
1493  69
1494  56
1495  81
1496  71
1497  67
1498  72
1499  53
1500  82
1501  63
1502  58
1503  81
1504  65
1505  70
1506  75
1507  78
1508  68
1509  63
1510  67
1511  81
1512  45
1513  65
1514  65
1515  54
1516  56
1517  42
1518  89
1519  56
1520  64
1521  67
1522  55
1523  66
1524  77
1525  70
1526  64
1527  80
1528  62
1529  71
1530  67
1531  66
1532  86
1533  84
1534  77
1535  83
1536  77
1537  63
1538  81
1539  64
1540  76
1541  52
1542  72
1543  66
1544  83
1545  69
1546  60
1547  77
1548  77
1549  65
1550  73
1551  61
1552  57
1553  62
1554  84
1555  74
1556  65
1557  59
1558  69
1559  71
1560  67
1561  64
1562  53
1563  75
1564  47
1565  72
1566  52
1567  67
1568  68
1569  62
1570  72
1571  55
1572  64
1573  61
1574  54
1575  58
1576  73
1577  71
1578  72
1579  66
1580  58
1581  62
1582  58
1583  67
1584  63
1585  61
1586  62
1587  60
1588  63
1589  63
1590  57
1591  67
1592  50
1593  57
1594  76
1595  60
1596  61
1597  82
1598  62
1599  61
1600  51
1601  68
1602  49
1603  56
1604  72
1605  49
1606  66
1607  55
1608  73
1609  68
1610  56
1611  60
1612  67
1613  68
1614  64
1615  59
1616  58
1617  59
1618  64
1619  70
1620  61
1621  59
1622  59
1623  55
1624  54
1625  52
1626  66
1627  53
1628  69
1629  57
1630  61
1631  65
1632  62
1633  61
1634  62
1635  59
1636  66
1637  55
1638  51
1639  57
1640  53
1641  54
1642  61
1643  51
1644  63
1645  51
1646  61
1647  58
1648  63
1649  61
1650  59
1651  53
1652  53
1653  50
1654  59
1655  68
1656  69
1657  58
1658  81
1659  99
1660  114
1661  108
1662  117
1663  106
1664  115
1665  107
1666  112
1667  88
1668  62
1669  94
1670  54
1671  66
1672  54
1673  56
1674  56
1675  64
1676  52
1677  58
1678  62
1679  57
1680  62
1681  49
1682  70
1683  54
1684  45
1685  61
1686  62
1687  64
1688  52
1689  43
1690  66
1691  49
1692  58
1693  60
1694  63
1695  54
1696  57
1697  60
1698  50
1699  69
1700  50
1701  40
1702  78
1703  50
1704  66
1705  59
1706  55
1707  53
1708  54
1709  57
1710  53
1711  36
1712  53
1713  66
1714  53
1715  54
1716  53
1717  53
1718  43
1719  52
1720  52
1721  51
1722  57
1723  51
1724  48
1725  55
1726  55
1727  35
1728  52
1729  56
1730  53
1731  53
1732  50
1733  47
1734  47
1735  55
1736  53
1737  47
1738  43
1739  67
1740  56
1741  46
1742  44
1743  46
1744  59
1745  44
1746  51
1747  50
1748  48
1749  54
1750  52
1751  44
1752  40
1753  48
1754  52
1755  49
1756  55
1757  55
1758  60
1759  52
1760  56
1761  67
1762  53
1763  50
1764  60
1765  48
1766  56
1767  47
1768  56
1769  52
1770  48
1771  53
1772  42
1773  60
1774  60
1775  62
1776  46
1777  56
1778  51
1779  50
1780  59
1781  54
1782  63
1783  41
1784  57
1785  53
1786  55
1787  50
1788  38
1789  57
1790  49
1791  61
1792  51
1793  48
1794  69
1795  45
1796  54
1797  54
1798  47
1799  42
1800  51
1801  49
1802  45
1803  60
1804  46
1805  48
1806  43
1807  48
1808  48
1809  46
1810  62
1811  56
1812  46
1813  48
1814  44
1815  47
1816  49
1817  55
1818  59
1819  50
1820  46
1821  50
1822  42
1823  45
1824  60
1825  50
1826  44
1827  51
1828  49
1829  49
1830  57
1831  45
1832  49
1833  40
1834  49
1835  43
1836  59
1837  70
1838  72
1839  58
1840  61
1841  53
1842  61
1843  55
1844  56
1845  52
1846  58
1847  49
1848  54
1849  44
1850  40
1851  54
1852  53
1853  41
1854  48
1855  50
1856  36
1857  58
1858  57
1859  46
1860  46
1861  42
1862  55
1863  39
1864  37
1865  41
1866  55
1867  47
1868  59
1869  48
1870  55
1871  47
1872  48
1873  43
1874  47
1875  58
1876  43
1877  45
1878  50
1879  67
1880  59
1881  59
1882  53
1883  58
1884  57
1885  56
1886  53
1887  50
1888  53
1889  52
1890  60
1891  50
1892  51
1893  59
1894  48
1895  51
1896  59
1897  50
1898  58
1899  53
1900  59
1901  48
1902  55
1903  48
1904  55
1905  73
1906  72
1907  100
1908  192
1909  345
1910  632
1911  1033
1912  1463
1913  1864
1914  2280
1915  2266
1916  2052
1917  1626
1918  1133
1919  661
1920  336
1921  162
1922  94
1923  63
1924  48
1925  50
1926  51
1927  55
1928  59
1929  44
1930  51
1931  38
1932  33
1933  43
1934  28
1935  36
1936  50
1937  42
1938  40
1939  43
1940  38
1941  51
1942  42
1943  33
1944  45
1945  49
1946  51
1947  47
1948  55
1949  54
1950  60
1951  63
1952  79
1953  92
1954  108
1955  100
1956  90
1957  82
1958  63
1959  50
1960  60
1961  33
1962  45
1963  45
1964  35
1965  40
1966  45
1967  41
1968  43
1969  41
1970  35
1971  40
1972  38
1973  29
1974  39
1975  36
1976  46
1977  43
1978  55
1979  47
1980  28
1981  38
1982  43
1983  51
1984  51
1985  40
1986  44
1987  43
1988  39
1989  45
1990  34
1991  38
1992  42
1993  30
1994  45
1995  36
1996  30
1997  34
1998  35
1999  38
2000  35
2001  33
2002  44
2003  44
2004  38
2005  38
2006  33
2007  37
2008  34
2009  26
2010  51
2011  37
2012  29
2013  40
2014  25
2015  39
2016  37
2017  45
2018  41
2019  44
2020  48
2021  40
2022  32
2023  49
2024  58
2025  44
2026  47
2027  74
2028  57
2029  72
2030  75
2031  66
2032  55
2033  71
2034  99
2035  100
2036  75
2037  96
2038  94
2039  88
2040  47
2041  55
2042  40
2043  37
2044  34
2045  38
2046  49
2047  36
2048  40
2049  39
2050  36
2051  38
2052  34
2053  42
2054  37
2055  34
2056  36
2057  42
2058  43
2059  37
2060  39
2061  35
2062  45
2063  38
2064  40
2065  32
2066  42
2067  48
2068  49
2069  35
2070  42
2071  29
2072  42
2073  35
2074  36
2075  27
2076  45
2077  38
2078  46
2079  33
2080  36
2081  39
2082  37
2083  44
2084  34
2085  31
2086  36
2087  37
2088  47
2089  42
2090  50
2091  34
2092  36
2093  36
2094  40
2095  45
2096  37
2097  27
2098  32
2099  38
2100  41
2101  37
2102  45
2103  38
2104  22
2105  26
2106  36
2107  29
2108  32
2109  31
2110  32
2111  43
2112  33
2113  31
2114  38
2115  40
2116  34
2117  35
2118  31
2119  48
2120  40
2121  36
2122  29
2123  42
2124  31
2125  42
2126  43
2127  36
2128  40
2129  43
2130  32
2131  46
2132  49
2133  31
2134  51
2135  33
2136  34
2137  31
2138  39
2139  43
2140  39
2141  25
2142  40
2143  32
2144  34
2145  30
2146  39
2147  39
2148  38
2149  34
2150  44
2151  42
2152  36
2153  20
2154  45
2155  18
2156  48
2157  32
2158  36
2159  37
2160  45
2161  42
2162  44
2163  31
2164  31
2165  38
2166  36
2167  35
2168  36
2169  34
2170  32
2171  44
2172  35
2173  38
2174  39
2175  40
2176  23
2177  31
2178  30
2179  35
2180  28
2181  40
2182  37
2183  36
2184  41
2185  37
2186  41
2187  35
2188  27
2189  33
2190  29
2191  30
2192  43
2193  29
2194  35
2195  42
2196  34
2197  42
2198  37
2199  32
2200  30
2201  31
2202  39
2203  27
2204  38
2205  27
2206  38
2207  40
2208  36
2209  37
2210  50
2211  34
2212  31
2213  36
2214  43
2215  40
2216  24
2217  31
2218  30
2219  38
2220  48
2221  34
2222  41
2223  45
2224  35
2225  26
2226  24
2227  46
2228  36
2229  30
2230  47
2231  38
2232  31
2233  39
2234  32
2235  35
2236  32
2237  38
2238  36
2239  41
2240  37
2241  37
2242  30
2243  41
2244  36
2245  39
2246  34
2247  36
2248  30
2249  41
2250  29
2251  42
2252  45
2253  51
2254  57
2255  53
2256  86
2257  83
2258  131
2259  151
2260  148
2261  162
2262  141
2263  131
2264  91
2265  82
2266  51
2267  52
2268  43
2269  33
2270  33
2271  37
2272  26
2273  31
2274  41
2275  41
2276  42
2277  36
2278  44
2279  33
2280  30
2281  34
2282  29
2283  29
2284  42
2285  45
2286  42
2287  28
2288  42
2289  30
2290  37
2291  31
2292  36
2293  32
2294  34
2295  29
2296  38
2297  31
2298  30
2299  36
2300  33
2301  34
2302  25
2303  35
2304  29
2305  49
2306  32
2307  34
2308  34
2309  40
2310  29
2311  39
2312  46
2313  44
2314  37
2315  35
2316  35
2317  31
2318  38
2319  34
2320  35
2321  33
2322  28
2323  25
2324  31
2325  32
2326  36
2327  39
2328  31
2329  37
2330  43
2331  39
2332  39
2333  29
2334  30
2335  28
2336  40
2337  32
2338  25
2339  27
2340  40
2341  28
2342  34
2343  35
2344  25
2345  35
2346  34
2347  35
2348  41
2349  29
2350  32
2351  45
2352  41
2353  32
2354  26
2355  29
2356  39
2357  26
2358  35
2359  36
2360  37
2361  34
2362  40
2363  44
2364  35
2365  41
2366  27
2367  33
2368  35
2369  35
2370  25
2371  32
2372  26
2373  38
2374  35
2375  22
2376  37
2377  45
2378  30
2379  27
2380  29
2381  32
2382  30
2383  42
2384  39
2385  25
2386  41
2387  33
2388  42
2389  34
2390  35
2391  39
2392  39
2393  24
2394  35
2395  35
2396  37
2397  30
2398  30
2399  42
2400  25
2401  33
2402  40
2403  26
2404  25
2405  32
2406  37
2407  32
2408  32
2409  26
2410  33
2411  33
2412  34
2413  33
2414  28
2415  29
2416  34
2417  40
2418  29
2419  32
2420  26
2421  26
2422  40
2423  35
2424  44
2425  71
2426  75
2427  115
2428  144
2429  169
2430  185
2431  220
2432  182
2433  134
2434  106
2435  80
2436  56
2437  60
2438  39
2439  41
2440  30
2441  35
2442  34
2443  35
2444  38
2445  28
2446  38
2447  35
2448  34
2449  36
2450  29
2451  30
2452  31
2453  21
2454  31
2455  31
2456  25
2457  43
2458  25
2459  22
2460  29
2461  29
2462  39
2463  33
2464  39
2465  28
2466  26
2467  31
2468  38
2469  28
2470  35
2471  29
2472  28
2473  31
2474  35
2475  40
2476  32
2477  25
2478  33
2479  30
2480  32
2481  34
2482  35
2483  29
2484  34
2485  27
2486  41
2487  38
2488  41
2489  25
2490  33
2491  28
2492  34
2493  32
2494  29
2495  35
2496  41
2497  37
2498  21
2499  37
2500  36
2501  30
2502  38
2503  35
2504  21
2505  51
2506  35
2507  31
2508  28
2509  22
2510  38
2511  19
2512  35
2513  25
2514  26
2515  27
2516  20
2517  37
2518  34
2519  30
2520  26
2521  26
2522  29
2523  23
2524  35
2525  22
2526  26
2527  47
2528  34
2529  41
2530  42
2531  32
2532  32
2533  29
2534  27
2535  27
2536  34
2537  35
2538  35
2539  33
2540  27
2541  22
2542  35
2543  35
2544  27
2545  39
2546  28
2547  22
2548  25
2549  29
2550  36
2551  38
2552  32
2553  34
2554  29
2555  32
2556  36
2557  28
2558  38
2559  32
2560  32
2561  28
2562  34
2563  27
2564  26
2565  27
2566  39
2567  38
2568  31
2569  41
2570  31
2571  32
2572  31
2573  40
2574  19
2575  38
2576  25
2577  29
2578  26
2579  27
2580  31
2581  28
2582  38
2583  51
2584  42
2585  31
2586  32
2587  31
2588  27
2589  35
2590  44
2591  23
2592  23
2593  39
2594  36
2595  31
2596  33
2597  35
2598  34
2599  34
2600  32
2601  33
2602  40
2603  26
2604  26
2605  28
2606  21
2607  27
2608  32
2609  29
2610  33
2611  28
2612  39
2613  32
2614  30
2615  29
2616  38
2617  30
2618  25
2619  28
2620  32
2621  35
2622  35
2623  22
2624  29
2625  28
2626  30
2627  37
2628  36
2629  32
2630  37
2631  33
2632  27
2633  30
2634  27
2635  29
2636  30
2637  36
2638  31
2639  34
2640  29
2641  24
2642  36
2643  34
2644  29
2645  44
2646  35
2647  34
2648  35
2649  38
2650  27
2651  19
2652  36
2653  27
2654  38
2655  37
2656  41
2657  29
2658  31
2659  48
2660  41
2661  46
2662  43
2663  47
2664  50
2665  43
2666  27
2667  21
2668  31
2669  28
2670  31
2671  19
2672  28
2673  29
2674  34
2675  34
2676  32
2677  46
2678  37
2679  32
2680  31
2681  30
2682  28
2683  35
2684  40
2685  24
2686  42
2687  34
2688  32
2689  20
2690  29
2691  30
2692  28
2693  25
2694  25
2695  42
2696  28
2697  45
2698  29
2699  28
2700  25
2701  28
2702  34
2703  33
2704  22
2705  17
2706  29
2707  35
2708  35
2709  42
2710  27
2711  24
2712  30
2713  35
2714  43
2715  38
2716  42
2717  29
2718  33
2719  24
2720  32
2721  34
2722  27
2723  38
2724  29
2725  28
2726  29
2727  34
2728  32
2729  24
2730  30
2731  27
2732  22
2733  37
2734  24
2735  28
2736  38
2737  39
2738  30
2739  38
2740  39
2741  40
2742  23
2743  24
2744  37
2745  28
2746  28
2747  25
2748  18
2749  27
2750  25
2751  31
2752  21
2753  31
2754  28
2755  26
2756  27
2757  41
2758  33
2759  28
2760  43
2761  29
2762  35
2763  22
2764  28
2765  35
2766  32
2767  36
2768  29
2769  36
2770  33
2771  34
2772  42
2773  37
2774  34
2775  39
2776  30
2777  40
2778  40
2779  39
2780  31
2781  36
2782  35
2783  37
2784  27
2785  26
2786  37
2787  28
2788  30
2789  26
2790  26
2791  35
2792  32
2793  30
2794  36
2795  30
2796  27
2797  21
2798  30
2799  19
2800  30
2801  31
2802  19
2803  32
2804  28
2805  45
2806  22
2807  30
2808  30
2809  30
2810  21
2811  37
2812  32
2813  27
2814  30
2815  35
2816  28
2817  29
2818  41
2819  30
2820  35
2821  27
2822  35
2823  39
2824  31
2825  19
2826  44
2827  37
2828  33
2829  30
2830  24
2831  36
2832  34
2833  33
2834  30
2835  24
2836  24
2837  30
2838  28
2839  22
2840  29
2841  28
2842  32
2843  26
2844  41
2845  39
2846  27
2847  32
2848  37
2849  33
2850  27
2851  34
2852  42
2853  28
2854  42
2855  31
2856  29
2857  27
2858  31
2859  33
2860  25
2861  32
2862  36
2863  28
2864  40
2865  26
2866  26
2867  25
2868  32
2869  37
2870  37
2871  25
2872  34
2873  20
2874  31
2875  30
2876  23
2877  35
2878  34
2879  28
2880  25
2881  26
2882  27
2883  32
2884  42
2885  32
2886  32
2887  35
2888  27
2889  39
2890  26
2891  27
2892  23
2893  29
2894  24
2895  29
2896  35
2897  35
2898  34
2899  29
2900  28
2901  24
2902  32
2903  37
2904  29
2905  33
2906  29
2907  33
2908  34
2909  33
2910  23
2911  33
2912  33
2913  23
2914  36
2915  36
2916  39
2917  28
2918  35
2919  29
2920  32
2921  32
2922  30
2923  26
2924  30
2925  26
2926  35
2927  35
2928  34
2929  28
2930  27
2931  37
2932  29
2933  38
2934  32
2935  31
2936  26
2937  30
2938  31
2939  25
2940  26
2941  36
2942  22
2943  32
2944  21
2945  31
2946  36
2947  22
2948  20
2949  31
2950  34
2951  39
2952  23
2953  28
2954  39
2955  28
2956  30
2957  34
2958  32
2959  39
2960  28
2961  42
2962  40
2963  31
2964  38
2965  28
2966  24
2967  33
2968  31
2969  28
2970  32
2971  20
2972  30
2973  25
2974  42
2975  35
2976  31
2977  31
2978  30
2979  24
2980  29
2981  34
2982  31
2983  34
2984  23
2985  31
2986  34
2987  26
2988  32
2989  30
2990  19
2991  35
2992  29
2993  23
2994  25
2995  26
2996  42
2997  38
2998  22
2999  32
3000  26
3001  31
3002  32
3003  23
3004  33
3005  36
3006  34
3007  35
3008  26
3009  32
3010  34
3011  26
3012  29
3013  28
3014  33
3015  32
3016  31
3017  38
3018  37
3019  36
3020  21
3021  29
3022  25
3023  49
3024  34
3025  29
3026  27
3027  25
3028  30
3029  24
3030  25
3031  33
3032  34
3033  31
3034  33
3035  31
3036  28
3037  35
3038  41
3039  37
3040  24
3041  39
3042  29
3043  38
3044  32
3045  38
3046  43
3047  50
3048  39
3049  40
3050  54
3051  57
3052  45
3053  39
3054  47
3055  57
3056  43
3057  45
3058  35
3059  32
3060  36
3061  35
3062  37
3063  50
3064  37
3065  40
3066  29
3067  38
3068  30
3069  29
3070  35
3071  22
3072  32
3073  41
3074  37
3075  27
3076  24
3077  28
3078  40
3079  27
3080  30
3081  39
3082  25
3083  32
3084  30
3085  26
3086  31
3087  38
3088  28
3089  34
3090  24
3091  29
3092  24
3093  36
3094  31
3095  34
3096  27
3097  27
3098  33
3099  17
3100  28
3101  33
3102  32
3103  24
3104  37
3105  17
3106  30
3107  39
3108  19
3109  44
3110  32
3111  26
3112  31
3113  31
3114  32
3115  46
3116  25
3117  41
3118  30
3119  36
3120  32
3121  27
3122  31
3123  41
3124  29
3125  44
3126  46
3127  26
3128  37
3129  29
3130  22
3131  26
3132  39
3133  37
3134  32
3135  22
3136  32
3137  22
3138  30
3139  37
3140  34
3141  25
3142  30
3143  38
3144  30
3145  40
3146  36
3147  43
3148  45
3149  43
3150  47
3151  46
3152  42
3153  48
3154  43
3155  43
3156  41
3157  33
3158  37
3159  31
3160  41
3161  31
3162  45
3163  35
3164  44
3165  50
3166  43
3167  40
3168  42
3169  49
3170  33
3171  33
3172  20
3173  30
3174  33
3175  27
3176  27
3177  33
3178  31
3179  28
3180  24
3181  25
3182  22
3183  27
3184  29
3185  22
3186  30
3187  45
3188  36
3189  23
3190  29
3191  27
3192  33
3193  24
3194  30
3195  32
3196  23
3197  35
3198  25
3199  23
3200  28
3201  24
3202  25
3203  34
3204  26
3205  22
3206  23
3207  34
3208  26
3209  28
3210  30
3211  29
3212  28
3213  29
3214  20
3215  24
3216  29
3217  23
3218  24
3219  35
3220  23
3221  28
3222  27
3223  31
3224  24
3225  26
3226  28
3227  19
3228  25
3229  17
3230  20
3231  36
3232  28
3233  23
3234  22
3235  32
3236  26
3237  23
3238  28
3239  30
3240  14
3241  29
3242  21
3243  33
3244  27
3245  30
3246  28
3247  19
3248  23
3249  28
3250  29
3251  20
3252  30
3253  32
3254  29
3255  26
3256  28
3257  21
3258  27
3259  26
3260  27
3261  32
3262  27
3263  26
3264  31
3265  31
3266  29
3267  18
3268  24
3269  20
3270  31
3271  20
3272  29
3273  28
3274  25
3275  29
3276  17
3277  28
3278  25
3279  27
3280  40
3281  40
3282  40
3283  40
3284  48
3285  70
3286  62
3287  74
3288  53
3289  52
3290  38
3291  34
3292  40
3293  37
3294  38
3295  19
3296  27
3297  31
3298  23
3299  38
3300  29
3301  24
3302  27
3303  24
3304  20
3305  26
3306  22
3307  19
3308  28
3309  27
3310  27
3311  19
3312  30
3313  36
3314  25
3315  28
3316  24
3317  24
3318  26
3319  27
3320  27
3321  31
3322  27
3323  26
3324  29
3325  21
3326  30
3327  20
3328  23
3329  20
3330  21
3331  27
3332  27
3333  23
3334  18
3335  35
3336  19
3337  26
3338  30
3339  23
3340  26
3341  23
3342  24
3343  25
3344  16
3345  27
3346  23
3347  23
3348  26
3349  22
3350  24
3351  23
3352  26
3353  21
3354  25
3355  24
3356  34
3357  26
3358  27
3359  27
3360  20
3361  26
3362  20
3363  21
3364  21
3365  32
3366  37
3367  26
3368  30
3369  27
3370  21
3371  24
3372  32
3373  26
3374  22
3375  25
3376  22
3377  24
3378  27
3379  21
3380  26
3381  24
3382  24
3383  14
3384  30
3385  23
3386  33
3387  21
3388  20
3389  30
3390  22
3391  24
3392  32
3393  16
3394  25
3395  31
3396  27
3397  14
3398  24
3399  35
3400  15
3401  34
3402  29
3403  26
3404  15
3405  31
3406  27
3407  18
3408  32
3409  24
3410  25
3411  23
3412  26
3413  24
3414  19
3415  28
3416  28
3417  27
3418  26
3419  23
3420  21
3421  24
3422  19
3423  30
3424  27
3425  23
3426  32
3427  31
3428  19
3429  21
3430  31
3431  28
3432  31
3433  24
3434  31
3435  42
3436  33
3437  21
3438  22
3439  27
3440  26
3441  29
3442  26
3443  27
3444  25
3445  24
3446  25
3447  25
3448  21
3449  24
3450  22
3451  27
3452  23
3453  25
3454  31
3455  17
3456  21
3457  23
3458  31
3459  13
3460  35
3461  30
3462  20
3463  30
3464  27
3465  22
3466  26
3467  18
3468  26
3469  18
3470  24
3471  29
3472  21
3473  26
3474  26
3475  31
3476  25
3477  15
3478  20
3479  19
3480  26
3481  28
3482  14
3483  24
3484  30
3485  33
3486  26
3487  25
3488  20
3489  20
3490  25
3491  34
3492  22
3493  26
3494  28
3495  37
3496  21
3497  20
3498  25
3499  16
3500  19
3501  28
3502  18
3503  15
3504  27
3505  32
3506  24
3507  42
3508  32
3509  26
3510  31
3511  22
3512  35
3513  28
3514  27
3515  21
3516  28
3517  21
3518  26
3519  15
3520  22
3521  28
3522  30
3523  22
3524  23
3525  30
3526  23
3527  25
3528  30
3529  27
3530  35
3531  35
3532  32
3533  28
3534  23
3535  29
3536  25
3537  23
3538  26
3539  27
3540  29
3541  26
3542  28
3543  21
3544  21
3545  26
3546  23
3547  23
3548  26
3549  30
3550  17
3551  22
3552  18
3553  20
3554  28
3555  22
3556  33
3557  28
3558  26
3559  18
3560  16
3561  25
3562  27
3563  26
3564  30
3565  15
3566  26
3567  20
3568  22
3569  27
3570  21
3571  30
3572  20
3573  25
3574  36
3575  33
3576  26
3577  23
3578  27
3579  41
3580  26
3581  30
3582  21
3583  23
3584  27
3585  23
3586  29
3587  24
3588  27
3589  20
3590  21
3591  16
3592  25
3593  27
3594  19
3595  24
3596  24
3597  19
3598  20
3599  15
3600  16
3601  27
3602  31
3603  31
3604  16
3605  23
3606  28
3607  26
3608  28
3609  17
3610  20
3611  18
3612  28
3613  39
3614  24
3615  26
3616  34
3617  32
3618  23
3619  27
3620  23
3621  28
3622  24
3623  26
3624  43
3625  37
3626  32
3627  26
3628  33
3629  20
3630  20
3631  20
3632  25
3633  18
3634  22
3635  19
3636  33
3637  25
3638  18
3639  34
3640  26
3641  28
3642  42
3643  41
3644  34
3645  38
3646  41
3647  22
3648  29
3649  26
3650  27
3651  17
3652  19
3653  26
3654  21
3655  31
3656  28
3657  20
3658  37
3659  22
3660  31
3661  18
3662  24
3663  26
3664  30
3665  27
3666  21
3667  26
3668  28
3669  27
3670  18
3671  28
3672  26
3673  23
3674  16
3675  19
3676  29
3677  28
3678  29
3679  36
3680  25
3681  22
3682  19
3683  18
3684  24
3685  26
3686  25
3687  27
3688  30
3689  36
3690  34
3691  22
3692  38
3693  42
3694  57
3695  36
3696  45
3697  49
3698  51
3699  47
3700  32
3701  34
3702  29
3703  22
3704  21
3705  22
3706  23
3707  17
3708  19
3709  27
3710  28
3711  25
3712  24
3713  26
3714  21
3715  25
3716  30
3717  33
3718  20
3719  26
3720  26
3721  31
3722  13
3723  29
3724  22
3725  20
3726  26
3727  26
3728  31
3729  31
3730  20
3731  21
3732  24
3733  29
3734  24
3735  27
3736  20
3737  26
3738  23
3739  20
3740  24
3741  29
3742  23
3743  22
3744  17
3745  17
3746  25
3747  19
3748  18
3749  21
3750  28
3751  26
3752  15
3753  31
3754  30
3755  28
3756  28
3757  19
3758  30
3759  19
3760  17
3761  23
3762  19
3763  25
3764  37
3765  18
3766  18
3767  27
3768  27
3769  17
3770  23
3771  26
3772  21
3773  31
3774  31
3775  21
3776  23
3777  26
3778  23
3779  29
3780  23
3781  22
3782  19
3783  29
3784  24
3785  25
3786  34
3787  23
3788  27
3789  13
3790  24
3791  23
3792  27
3793  13
3794  26
3795  22
3796  31
3797  18
3798  23
3799  30
3800  24
3801  25
3802  25
3803  31
3804  29
3805  23
3806  23
3807  25
3808  25
3809  24
3810  22
3811  28
3812  20
3813  20
3814  19
3815  33
3816  29
3817  28
3818  29
3819  30
3820  27
3821  24
3822  25
3823  35
3824  28
3825  35
3826  28
3827  22
3828  27
3829  23
3830  23
3831  30
3832  17
3833  21
3834  20
3835  23
3836  25
3837  17
3838  39
3839  26
3840  27
3841  24
3842  27
3843  24
3844  31
3845  18
3846  25
3847  25
3848  29
3849  26
3850  28
3851  33
3852  33
3853  39
3854  36
3855  29
3856  31
3857  25
3858  25
3859  28
3860  26
3861  27
3862  19
3863  29
3864  33
3865  23
3866  21
3867  26
3868  23
3869  27
3870  25
3871  34
3872  32
3873  26
3874  26
3875  32
3876  23
3877  21
3878  33
3879  22
3880  29
3881  36
3882  30
3883  28
3884  15
3885  19
3886  18
3887  26
3888  22
3889  26
3890  25
3891  24
3892  25
3893  21
3894  27
3895  25
3896  26
3897  42
3898  26
3899  19
3900  28
3901  33
3902  19
3903  20
3904  28
3905  23
3906  33
3907  17
3908  29
3909  30
3910  16
3911  29
3912  24
3913  25
3914  24
3915  20
3916  16
3917  18
3918  23
3919  18
3920  34
3921  25
3922  30
3923  20
3924  31
3925  21
3926  20
3927  26
3928  15
3929  20
3930  35
3931  32
3932  21
3933  32
3934  21
3935  27
3936  23
3937  37
3938  23
3939  24
3940  28
3941  27
3942  30
3943  24
3944  20
3945  21
3946  24
3947  27
3948  20
3949  26
3950  20
3951  19
3952  26
3953  25
3954  18
3955  23
3956  29
3957  24
3958  31
3959  28
3960  22
3961  20
3962  24
3963  29
3964  24
3965  22
3966  28
3967  33
3968  25
3969  20
3970  21
3971  21
3972  18
3973  22
3974  21
3975  27
3976  32
3977  36
3978  29
3979  21
3980  20
3981  27
3982  27
3983  36
3984  17
3985  34
3986  20
3987  26
3988  23
3989  18
3990  19
3991  33
3992  18
3993  23
3994  22
3995  28
3996  22
3997  28
3998  32
3999  21
4000  18
4001  25
4002  23
4003  25
4004  32
4005  21
4006  32
4007  21
4008  28
4009  26
4010  27
4011  21
4012  29
4013  28
4014  25
4015  18
4016  25
4017  23
4018  18
4019  26
4020  31
4021  27
4022  26
4023  25
4024  18
4025  32
4026  21
4027  24
4028  22
4029  33
4030  26
4031  35
4032  28
4033  24
4034  25
4035  31
4036  33
4037  26
4038  36
4039  32
4040  20
4041  30
4042  32
4043  25
4044  22
4045  28
4046  23
4047  22
4048  31
4049  28
4050  26
4051  21
4052  26
4053  23
4054  21
4055  25
4056  25
4057  24
4058  19
4059  29
4060  22
4061  32
4062  22
4063  24
4064  25
4065  29
4066  21
4067  27
4068  28
4069  21
4070  31
4071  20
4072  20
4073  27
4074  25
4075  22
4076  19
4077  30
4078  29
4079  22
4080  22
4081  20
4082  22
4083  30
4084  20
4085  24
4086  37
4087  29
4088  32
4089  25
4090  35
4091  27
4092  26
4093  26
4094  26
4095  19
4096  24
4097  20
4098  21
4099  25
4100  23
4101  21
4102  28
4103  24
4104  20
4105  24
4106  25
4107  23
4108  26
4109  34
4110  24
4111  35
4112  30
4113  32
4114  20
4115  20
4116  17
4117  19
4118  19
4119  19
4120  19
4121  22
4122  18
4123  25
4124  27
4125  25
4126  23
4127  20
4128  28
4129  18
4130  21
4131  21
4132  17
4133  20
4134  23
4135  12
4136  24
4137  21
4138  15
4139  22
4140  21
4141  24
4142  20
4143  16
4144  23
4145  29
4146  25
4147  24
4148  18
4149  28
4150  22
4151  25
4152  38
4153  41
4154  65
4155  67
4156  121
4157  159
4158  182
4159  222
4160  272
4161  294
4162  320
4163  295
4164  291
4165  217
4166  182
4167  123
4168  82
4169  52
4170  52
4171  31
4172  35
4173  22
4174  20
4175  10
4176  19
4177  16
4178  28
4179  17
4180  22
4181  23
4182  23
4183  26
4184  21
4185  24
4186  20
4187  19
4188  18
4189  18
4190  20
4191  20
4192  18
4193  20
4194  23
4195  23
4196  20
4197  23
4198  24
4199  26
4200  12
4201  28
4202  14
4203  26
4204  26
4205  16
4206  24
4207  28
4208  21
4209  16
4210  16
4211  26
4212  24
4213  26
4214  25
4215  24
4216  29
4217  15
4218  22
4219  24
4220  22
4221  16
4222  15
4223  18
4224  18
4225  22
4226  20
4227  15
4228  18
4229  20
4230  17
4231  19
4232  22
4233  28
4234  20
4235  20
4236  29
4237  23
4238  22
4239  13
4240  24
4241  23
4242  26
4243  32
4244  24
4245  16
4246  22
4247  22
4248  24
4249  10
4250  19
4251  30
4252  19
4253  27
4254  20
4255  24
4256  24
4257  20
4258  20
4259  18
4260  23
4261  20
4262  17
4263  22
4264  30
4265  22
4266  14
4267  13
4268  11
4269  25
4270  20
4271  18
4272  22
4273  15
4274  22
4275  20
4276  19
4277  21
4278  18
4279  24
4280  19
4281  13
4282  20
4283  21
4284  20
4285  14
4286  21
4287  28
4288  16
4289  20
4290  10
4291  23
4292  22
4293  23
4294  25
4295  21
4296  14
4297  30
4298  14
4299  17
4300  19
4301  26
4302  20
4303  16
4304  23
4305  20
4306  21
4307  23
4308  21
4309  17
4310  15
4311  11
4312  14
4313  23
4314  19
4315  20
4316  22
4317  27
4318  27
4319  18
4320  29
4321  28
4322  20
4323  25
4324  23
4325  30
4326  29
4327  30
4328  25
4329  27
4330  21
4331  27
4332  18
4333  16
4334  26
4335  20
4336  28
4337  20
4338  20
4339  20
4340  16
4341  24
4342  27
4343  9
4344  20
4345  16
4346  19
4347  22
4348  25
4349  12
4350  22
4351  26
4352  20
4353  26
4354  11
4355  20
4356  18
4357  24
4358  22
4359  22
4360  15
4361  19
4362  19
4363  17
4364  26
4365  24
4366  27
4367  15
4368  20
4369  22
4370  22
4371  21
4372  15
4373  22
4374  23
4375  23
4376  21
4377  17
4378  19
4379  19
4380  16
4381  19
4382  14
4383  22
4384  21
4385  18
4386  29
4387  19
4388  23
4389  18
4390  28
4391  11
4392  17
4393  25
4394  15
4395  19
4396  20
4397  27
4398  24
4399  23
4400  14
4401  22
4402  21
4403  25
4404  18
4405  12
4406  22
4407  28
4408  24
4409  25
4410  25
4411  10
4412  23
4413  25
4414  18
4415  17
4416  22
4417  13
4418  35
4419  15
4420  23
4421  35
4422  15
4423  23
4424  24
4425  14
4426  16
4427  18
4428  20
4429  20
4430  20
4431  21
4432  20
4433  22
4434  19
4435  25
4436  19
4437  18
4438  15
4439  23
4440  22
4441  21
4442  19
4443  23
4444  23
4445  19
4446  16
4447  21
4448  13
4449  19
4450  21
4451  18
4452  25
4453  19
4454  25
4455  17
4456  17
4457  22
4458  11
4459  20
4460  21
4461  22
4462  18
4463  14
4464  14
4465  11
4466  24
4467  18
4468  18
4469  18
4470  19
4471  23
4472  26
4473  26
4474  20
4475  28
4476  20
4477  19
4478  23
4479  23
4480  27
4481  29
4482  24
4483  23
4484  27
4485  20
4486  25
4487  29
4488  19
4489  21
4490  11
4491  21
4492  24
4493  14
4494  21
4495  18
4496  22
4497  12
4498  23
4499  21
4500  20
4501  25
4502  14
4503  19
4504  23
4505  17
4506  21
4507  20
4508  28
4509  26
4510  17
4511  19
4512  23
4513  15
4514  22
4515  13
4516  11
4517  16
4518  17
4519  15
4520  18
4521  21
4522  14
4523  19
4524  21
4525  26
4526  18
4527  20
4528  14
4529  20
4530  25
4531  17
4532  29
4533  27
4534  19
4535  17
4536  16
4537  16
4538  16
4539  26
4540  20
4541  24
4542  20
4543  17
4544  24
4545  13
4546  23
4547  15
4548  25
4549  21
4550  16
4551  19
4552  15
4553  26
4554  19
4555  22
4556  14
4557  26
4558  15
4559  20
4560  25
4561  21
4562  30
4563  21
4564  21
4565  27
4566  16
4567  30
4568  23
4569  12
4570  23
4571  19
4572  27
4573  19
4574  13
4575  22
4576  22
4577  23
4578  24
4579  26
4580  13
4581  19
4582  20
4583  17
4584  29
4585  25
4586  19
4587  26
4588  27
4589  24
4590  15
4591  19
4592  16
4593  17
4594  26
4595  21
4596  19
4597  8
4598  17
4599  24
4600  19
4601  26
4602  23
4603  18
4604  23
4605  25
4606  17
4607  27
4608  27
4609  24
4610  34
4611  32
4612  36
4613  48
4614  55
4615  76
4616  63
4617  91
4618  75
4619  99
4620  85
4621  83
4622  86
4623  68
4624  50
4625  35
4626  36
4627  22
4628  29
4629  24
4630  24
4631  26
4632  18
4633  33
4634  18
4635  19
4636  11
4637  19
4638  19
4639  21
4640  17
4641  16
4642  19
4643  26
4644  10
4645  15
4646  26
4647  26
4648  14
4649  35
4650  23
4651  18
4652  22
4653  16
4654  27
4655  28
4656  20
4657  14
4658  15
4659  24
4660  21
4661  19
4662  11
4663  17
4664  23
4665  18
4666  17
4667  20
4668  20
4669  24
4670  10
4671  25
4672  22
4673  21
4674  17
4675  19
4676  19
4677  28
4678  18
4679  20
4680  17
4681  19
4682  23
4683  21
4684  23
4685  22
4686  25
4687  18
4688  22
4689  27
4690  23
4691  12
4692  24
4693  30
4694  17
4695  25
4696  21
4697  24
4698  18
4699  15
4700  15
4701  12
4702  19
4703  12
4704  12
4705  21
4706  19
4707  15
4708  30
4709  16
4710  24
4711  17
4712  15
4713  15
4714  31
4715  14
4716  19
4717  21
4718  16
4719  25
4720  10
4721  24
4722  18
4723  21
4724  15
4725  22
4726  12
4727  20
4728  22
4729  20
4730  20
4731  25
4732  19
4733  21
4734  21
4735  21
4736  10
4737  20
4738  26
4739  15
4740  20
4741  17
4742  16
4743  16
4744  19
4745  20
4746  17
4747  19
4748  18
4749  17
4750  23
4751  16
4752  19
4753  18
4754  21
4755  20
4756  19
4757  16
4758  13
4759  20
4760  22
4761  15
4762  16
4763  19
4764  22
4765  17
4766  19
4767  10
4768  12
4769  17
4770  17
4771  20
4772  23
4773  20
4774  18
4775  22
4776  19
4777  18
4778  26
4779  19
4780  10
4781  22
4782  24
4783  10
4784  17
4785  26
4786  23
4787  12
4788  18
4789  21
4790  25
4791  14
4792  22
4793  22
4794  20
4795  21
4796  11
4797  16
4798  20
4799  19
4800  20
4801  14
4802  18
4803  17
4804  11
4805  12
4806  16
4807  17
4808  21
4809  20
4810  20
4811  29
4812  14
4813  21
4814  21
4815  20
4816  16
4817  18
4818  13
4819  12
4820  15
4821  12
4822  17
4823  18
4824  13
4825  20
4826  20
4827  22
4828  10
4829  12
4830  12
4831  10
4832  20
4833  22
4834  11
4835  22
4836  9
4837  24
4838  17
4839  15
4840  21
4841  19
4842  20
4843  24
4844  26
4845  21
4846  22
4847  29
4848  22
4849  16
4850  20
4851  17
4852  15
4853  13
4854  19
4855  10
4856  11
4857  23
4858  14
4859  17
4860  11
4861  14
4862  13
4863  15
4864  14
4865  11
4866  11
4867  16
4868  16
4869  20
4870  10
4871  18
4872  13
4873  20
4874  21
4875  14
4876  21
4877  15
4878  14
4879  13
4880  20
4881  20
4882  10
4883  19
4884  24
4885  30
4886  13
4887  21
4888  19
4889  24
4890  23
4891  15
4892  17
4893  21
4894  14
4895  20
4896  8
4897  12
4898  19
4899  14
4900  15
4901  14
4902  16
4903  19
4904  21
4905  13
4906  17
4907  17
4908  22
4909  15
4910  7
4911  10
4912  10
4913  7
4914  13
4915  12
4916  5
4917  16
4918  18
4919  17
4920  17
4921  22
4922  20
4923  12
4924  18
4925  14
4926  10
4927  13
4928  16
4929  15
4930  17
4931  21
4932  14
4933  12
4934  23
4935  18
4936  17
4937  9
4938  22
4939  16
4940  10
4941  11
4942  13
4943  16
4944  21
4945  22
4946  16
4947  8
4948  13
4949  15
4950  15
4951  18
4952  16
4953  12
4954  14
4955  12
4956  19
4957  18
4958  14
4959  14
4960  17
4961  12
4962  14
4963  18
4964  14
4965  12
4966  15
4967  18
4968  12
4969  12
4970  14
4971  13
4972  14
4973  10
4974  20
4975  14
4976  13
4977  13
4978  17
4979  18
4980  16
4981  11
4982  12
4983  16
4984  14
4985  12
4986  17
4987  9
4988  12
4989  22
4990  15
4991  9
4992  8
4993  14
4994  6
4995  15
4996  17
4997  15
4998  17
4999  14
5000  16
5001  13
5002  9
5003  7
5004  13
5005  12
5006  14
5007  11
5008  13
5009  8
5010  20
5011  12
5012  15
5013  8
5014  15
5015  20
5016  16
5017  16
5018  12
5019  13
5020  16
5021  10
5022  9
5023  9
5024  17
5025  9
5026  13
5027  16
5028  10
5029  10
5030  8
5031  17
5032  13
5033  16
5034  13
5035  10
5036  12
5037  11
5038  12
5039  19
5040  5
5041  9
5042  13
5043  10
5044  15
5045  12
5046  9
5047  12
5048  11
5049  11
5050  18
5051  9
5052  13
5053  15
5054  6
5055  9
5056  15
5057  15
5058  3
5059  12
5060  12
5061  19
5062  14
5063  10
5064  11
5065  20
5066  17
5067  12
5068  12
5069  18
5070  19
5071  13
5072  13
5073  13
5074  9
5075  14
5076  10
5077  14
5078  10
5079  13
5080  11
5081  12
5082  10
5083  8
5084  11
5085  13
5086  14
5087  19
5088  11
5089  10
5090  17
5091  10
5092  16
5093  9
5094  16
5095  9
5096  12
5097  11
5098  14
5099  10
5100  16
5101  18
5102  18
5103  6
5104  18
5105  14
5106  20
5107  26
5108  26
5109  39
5110  50
5111  68
5112  86
5113  90
5114  127
5115  174
5116  184
5117  216
5118  258
5119  243
5120  208
5121  236
5122  168
5123  125
5124  109
5125  79
5126  45
5127  32
5128  24
5129  21
5130  18
5131  11
5132  12
5133  4
5134  12
5135  20
5136  12
5137  14
5138  17
5139  10
5140  17
5141  14
5142  15
5143  15
5144  20
5145  22
5146  21
5147  12
5148  21
5149  19
5150  18
5151  14
5152  10
5153  11
5154  12
5155  10
5156  14
5157  10
5158  13
5159  14
5160  9
5161  6
5162  8
5163  11
5164  13
5165  16
5166  12
5167  5
5168  12
5169  15
5170  10
5171  13
5172  16
5173  10
5174  15
5175  12
5176  7
5177  8
5178  13
5179  15
5180  16
5181  8
5182  5
5183  11
5184  11
5185  5
5186  13
5187  11
5188  9
5189  15
5190  6
5191  11
5192  15
5193  8
5194  11
5195  7
5196  15
5197  8
5198  17
5199  11
5200  13
5201  8
5202  9
5203  16
5204  12
5205  10
5206  12
5207  7
5208  18
5209  6
5210  14
5211  15
5212  9
5213  10
5214  9
5215  10
5216  13
5217  10
5218  13
5219  11
5220  6
5221  12
5222  14
5223  15
5224  11
5225  19
5226  11
5227  13
5228  6
5229  14
5230  13
5231  5
5232  11
5233  17
5234  8
5235  16
5236  7
5237  16
5238  12
5239  6
5240  5
5241  12
5242  10
5243  14
5244  11
5245  16
5246  13
5247  11
5248  8
5249  15
5250  9
5251  8
5252  7
5253  8
5254  8
5255  11
5256  16
5257  9
5258  11
5259  11
5260  8
5261  18
5262  9
5263  12
5264  10
5265  14
5266  12
5267  14
5268  10
5269  8
5270  12
5271  17
5272  7
5273  14
5274  20
5275  14
5276  10
5277  12
5278  13
5279  10
5280  9
5281  11
5282  13
5283  11
5284  17
5285  11
5286  10
5287  6
5288  12
5289  16
5290  8
5291  8
5292  12
5293  11
5294  10
5295  15
5296  2
5297  10
5298  13
5299  9
5300  11
5301  11
5302  7
5303  15
5304  6
5305  11
5306  7
5307  10
5308  9
5309  7
5310  11
5311  10
5312  17
5313  12
5314  8
5315  15
5316  12
5317  10
5318  10
5319  6
5320  13
5321  16
5322  11
5323  6
5324  14
5325  14
5326  13
5327  13
5328  7
5329  19
5330  20
5331  15
5332  25
5333  25
5334  23
5335  14
5336  16
5337  13
5338  13
5339  6
5340  6
5341  16
5342  8
5343  10
5344  14
5345  8
5346  14
5347  10
5348  12
5349  9
5350  8
5351  10
5352  12
5353  6
5354  9
5355  12
5356  11
5357  11
5358  14
5359  3
5360  8
5361  9
5362  7
5363  11
5364  6
5365  17
5366  12
5367  7
5368  10
5369  14
5370  10
5371  13
5372  10
5373  9
5374  11
5375  8
5376  12
5377  10
5378  10
5379  10
5380  4
5381  5
5382  11
5383  11
5384  12
5385  12
5386  14
5387  6
5388  9
5389  14
5390  10
5391  11
5392  2
5393  5
5394  7
5395  13
5396  10
5397  10
5398  15
5399  4
5400  12
5401  7
5402  11
5403  5
5404  9
5405  10
5406  12
5407  12
5408  9
5409  11
5410  6
5411  15
5412  9
5413  6
5414  9
5415  8
5416  11
5417  12
5418  10
5419  3
5420  16
5421  10
5422  10
5423  6
5424  15
5425  11
5426  17
5427  17
5428  12
5429  5
5430  10
5431  10
5432  5
5433  8
5434  4
5435  7
5436  12
5437  6
5438  12
5439  11
5440  9
5441  8
5442  9
5443  11
5444  12
5445  8
5446  8
5447  8
5448  9
5449  6
5450  4
5451  6
5452  13
5453  9
5454  10
5455  7
5456  6
5457  10
5458  5
5459  10
5460  10
5461  9
5462  11
5463  12
5464  12
5465  7
5466  13
5467  9
5468  13
5469  8
5470  6
5471  7
5472  10
5473  10
5474  12
5475  10
5476  9
5477  12
5478  8
5479  6
5480  11
5481  10
5482  17
5483  11
5484  6
5485  16
5486  9
5487  9
5488  8
5489  10
5490  9
5491  9
5492  8
5493  13
5494  10
5495  10
5496  11
5497  6
5498  10
5499  10
5500  10
5501  7
5502  13
5503  8
5504  7
5505  8
5506  6
5507  13
5508  10
5509  15
5510  4
5511  11
5512  10
5513  11
5514  10
5515  10
5516  10
5517  8
5518  4
5519  11
5520  7
5521  10
5522  11
5523  6
5524  4
5525  14
5526  8
5527  6
5528  9
5529  4
5530  5
5531  12
5532  13
5533  4
5534  10
5535  12
5536  14
5537  10
5538  8
5539  6
5540  5
5541  6
5542  13
5543  5
5544  13
5545  10
5546  12
5547  10
5548  9
5549  7
5550  11
5551  7
5552  3
5553  10
5554  13
5555  10
5556  12
5557  8
5558  8
5559  2
5560  5
5561  10
5562  9
5563  6
5564  3
5565  6
5566  5
5567  10
5568  11
5569  9
5570  5
5571  11
5572  9
5573  10
5574  8
5575  7
5576  9
5577  5
5578  14
5579  8
5580  10
5581  7
5582  8
5583  11
5584  9
5585  14
5586  9
5587  12
5588  9
5589  10
5590  8
5591  6
5592  9
5593  9
5594  12
5595  10
5596  8
5597  15
5598  8
5599  11
5600  8
5601  9
5602  10
5603  7
5604  10
5605  13
5606  10
5607  7
5608  11
5609  4
5610  10
5611  6
5612  8
5613  16
5614  16
5615  10
5616  15
5617  10
5618  11
5619  10
5620  9
5621  7
5622  5
5623  6
5624  12
5625  7
5626  11
5627  9
5628  4
5629  12
5630  14
5631  7
5632  6
5633  4
5634  8
5635  13
5636  9
5637  10
5638  11
5639  14
5640  9
5641  5
5642  2
5643  5
5644  13
5645  13
5646  10
5647  12
5648  6
5649  12
5650  7
5651  5
5652  18
5653  11
5654  13
5655  7
5656  4
5657  11
5658  18
5659  9
5660  11
5661  6
5662  8
5663  9
5664  6
5665  7
5666  8
5667  7
5668  6
5669  14
5670  7
5671  8
5672  11
5673  8
5674  13
5675  8
5676  3
5677  7
5678  7
5679  5
5680  10
5681  6
5682  17
5683  6
5684  13
5685  7
5686  15
5687  14
5688  8
5689  6
5690  7
5691  12
5692  10
5693  11
5694  8
5695  8
5696  4
5697  8
5698  14
5699  4
5700  8
5701  13
5702  9
5703  9
5704  10
5705  11
5706  13
5707  13
5708  10
5709  7
5710  12
5711  14
5712  13
5713  13
5714  8
5715  6
5716  9
5717  8
5718  12
5719  9
5720  7
5721  11
5722  9
5723  8
5724  11
5725  11
5726  12
5727  10
5728  14
5729  9
5730  13
5731  9
5732  17
5733  12
5734  15
5735  19
5736  20
5737  30
5738  23
5739  31
5740  54
5741  66
5742  82
5743  80
5744  92
5745  113
5746  127
5747  134
5748  148
5749  146
5750  131
5751  116
5752  95
5753  81
5754  62
5755  51
5756  39
5757  16
5758  21
5759  15
5760  17
5761  20
5762  20
5763  20
5764  27
5765  27
5766  26
5767  35
5768  25
5769  30
5770  29
5771  21
5772  16
5773  19
5774  16
5775  13
5776  11
5777  13
5778  10
5779  10
5780  12
5781  14
5782  11
5783  10
5784  7
5785  13
5786  7
5787  12
5788  16
5789  7
5790  8
5791  10
5792  9
5793  11
5794  5
5795  10
5796  8
5797  15
5798  13
5799  15
5800  9
5801  10
5802  6
5803  6
5804  9
5805  6
5806  13
5807  8
5808  11
5809  8
5810  11
5811  10
5812  7
5813  8
5814  10
5815  13
5816  10
5817  7
5818  17
5819  7
5820  5
5821  12
5822  7
5823  7
5824  13
5825  9
5826  8
5827  14
5828  14
5829  18
5830  6
5831  4
5832  3
5833  6
5834  14
5835  14
5836  9
5837  6
5838  11
5839  13
5840  5
5841  7
5842  11
5843  9
5844  12
5845  9
5846  13
5847  5
5848  8
5849  7
5850  9
5851  6
5852  9
5853  13
5854  13
5855  11
5856  14
5857  12
5858  15
5859  9
5860  12
5861  6
5862  7
5863  13
5864  17
5865  17
5866  19
5867  17
5868  13
5869  15
5870  15
5871  19
5872  33
5873  34
5874  38
5875  49
5876  52
5877  84
5878  114
5879  126
5880  137
5881  169
5882  164
5883  163
5884  196
5885  174
5886  163
5887  138
5888  83
5889  89
5890  64
5891  40
5892  31
5893  20
5894  14
5895  14
5896  14
5897  8
5898  12
5899  10
5900  7
5901  5
5902  11
5903  16
5904  12
5905  6
5906  13
5907  11
5908  11
5909  5
5910  6
5911  10
5912  11
5913  7
5914  12
5915  9
5916  12
5917  10
5918  10
5919  12
5920  11
5921  14
5922  18
5923  13
5924  10
5925  14
5926  12
5927  22
5928  16
5929  27
5930  19
5931  15
5932  10
5933  12
5934  15
5935  17
5936  14
5937  15
5938  16
5939  10
5940  15
5941  20
5942  8
5943  14
5944  21
5945  15
5946  15
5947  14
5948  10
5949  16
5950  7
5951  5
5952  8
5953  8
5954  14
5955  10
5956  9
5957  17
5958  9
5959  12
5960  15
5961  6
5962  10
5963  13
5964  13
5965  7
5966  16
5967  4
5968  5
5969  10
5970  7
5971  8
5972  6
5973  12
5974  9
5975  8
5976  10
5977  7
5978  8
5979  7
5980  8
5981  6
5982  9
5983  7
5984  6
5985  16
5986  7
5987  8
5988  13
5989  8
5990  8
5991  8
5992  12
5993  6
5994  6
5995  6
5996  11
5997  7
5998  2
5999  11
6000  7
6001  14
6002  18
6003  14
6004  10
6005  14
6006  11
6007  10
6008  7
6009  7
6010  2
6011  17
6012  7
6013  12
6014  9
6015  9
6016  7
6017  13
6018  10
6019  9
6020  9
6021  9
6022  10
6023  5
6024  9
6025  8
6026  11
6027  10
6028  8
6029  10
6030  8
6031  9
6032  4
6033  15
6034  12
6035  9
6036  9
6037  6
6038  6
6039  11
6040  7
6041  7
6042  8
6043  9
6044  12
6045  9
6046  10
6047  13
6048  15
6049  5
6050  12
6051  10
6052  14
6053  11
6054  5
6055  11
6056  6
6057  12
6058  7
6059  9
6060  8
6061  9
6062  13
6063  10
6064  11
6065  10
6066  7
6067  6
6068  10
6069  9
6070  10
6071  9
6072  6
6073  11
6074  11
6075  9
6076  9
6077  7
6078  7
6079  10
6080  8
6081  9
6082  10
6083  10
6084  11
6085  8
6086  4
6087  9
6088  14
6089  8
6090  9
6091  10
6092  13
6093  9
6094  11
6095  11
6096  9
6097  6
6098  9
6099  10
6100  7
6101  14
6102  8
6103  11
6104  13
6105  10
6106  6
6107  8
6108  6
6109  14
6110  11
6111  12
6112  11
6113  13
6114  8
6115  9
6116  8
6117  10
6118  12
6119  8
6120  9
6121  8
6122  7
6123  4
6124  10
6125  12
6126  9
6127  12
6128  11
6129  15
6130  8
6131  7
6132  8
6133  12
6134  9
6135  10
6136  6
6137  9
6138  11
6139  11
6140  16
6141  7
6142  5
6143  11
6144  9
6145  12
6146  13
6147  15
6148  8
6149  11
6150  16
6151  6
6152  8
6153  18
6154  10
6155  11
6156  10
6157  14
6158  12
6159  9
6160  8
6161  17
6162  10
6163  10
6164  11
6165  7
6166  12
6167  11
6168  5
6169  10
6170  16
6171  8
6172  16
6173  9
6174  9
6175  13
6176  6
6177  18
6178  15
6179  10
6180  7
6181  14
6182  10
6183  18
6184  10
6185  13
6186  6
6187  12
6188  10
6189  11
6190  12
6191  15
6192  10
6193  9
6194  13
6195  13
6196  5
6197  17
6198  12
6199  14
6200  11
6201  8
6202  10
6203  6
6204  11
6205  11
6206  10
6207  8
6208  5
6209  14
6210  14
6211  4
6212  14
6213  8
6214  16
6215  8
6216  12
6217  10
6218  18
6219  11
6220  17
6221  9
6222  9
6223  11
6224  9
6225  13
6226  11
6227  12
6228  10
6229  11
6230  7
6231  11
6232  11
6233  7
6234  9
6235  15
6236  9
6237  15
6238  15
6239  12
6240  8
6241  10
6242  6
6243  16
6244  14
6245  8
6246  10
6247  16
6248  7
6249  10
6250  11
6251  12
6252  11
6253  7
6254  9
6255  5
6256  12
6257  9
6258  12
6259  5
6260  10
6261  10
6262  7
6263  10
6264  8
6265  10
6266  11
6267  6
6268  11
6269  10
6270  18
6271  12
6272  13
6273  13
6274  13
6275  4
6276  11
6277  13
6278  13
6279  18
6280  9
6281  14
6282  8
6283  8
6284  11
6285  8
6286  9
6287  9
6288  12
6289  11
6290  7
6291  14
6292  9
6293  6
6294  11
6295  8
6296  5
6297  7
6298  6
6299  7
6300  8
6301  13
6302  6
6303  8
6304  9
6305  10
6306  9
6307  7
6308  6
6309  9
6310  8
6311  11
6312  6
6313  8
6314  7
6315  10
6316  10
6317  8
6318  7
6319  8
6320  12
6321  8
6322  10
6323  9
6324  8
6325  6
6326  7
6327  10
6328  4
6329  7
6330  5
6331  8
6332  10
6333  7
6334  3
6335  11
6336  8
6337  5
6338  8
6339  3
6340  7
6341  8
6342  10
6343  9
6344  8
6345  3
6346  9
6347  6
6348  4
6349  6
6350  6
6351  6
6352  8
6353  8
6354  6
6355  8
6356  7
6357  12
6358  5
6359  9
6360  9
6361  6
6362  4
6363  5
6364  9
6365  8
6366  6
6367  8
6368  4
6369  6
6370  3
6371  4
6372  8
6373  3
6374  8
6375  7
6376  9
6377  8
6378  9
6379  9
6380  6
6381  7
6382  7
6383  4
6384  2
6385  5
6386  8
6387  5
6388  12
6389  6
6390  7
6391  12
6392  8
6393  7
6394  4
6395  6
6396  6
6397  6
6398  15
6399  7
6400  22
6401  14
6402  21
6403  21
6404  27
6405  31
6406  21
6407  14
6408  19
6409  18
6410  9
6411  7
6412  10
6413  10
6414  3
6415  9
6416  6
6417  6
6418  12
6419  5
6420  5
6421  5
6422  5
6423  4
6424  9
6425  2
6426  8
6427  8
6428  5
6429  8
6430  7
6431  6
6432  7
6433  7
6434  2
6435  7
6436  3
6437  8
6438  5
6439  4
6440  9
6441  9
6442  6
6443  9
6444  8
6445  9
6446  10
6447  9
6448  10
6449  10
6450  6
6451  12
6452  3
6453  7
6454  8
6455  7
6456  8
6457  5
6458  9
6459  7
6460  6
6461  8
6462  6
6463  11
6464  3
6465  13
6466  6
6467  7
6468  6
6469  7
6470  8
6471  4
6472  10
6473  7
6474  5
6475  12
6476  6
6477  8
6478  4
6479  7
6480  4
6481  11
6482  5
6483  1
6484  4
6485  4
6486  6
6487  7
6488  4
6489  7
6490  6
6491  8
6492  5
6493  7
6494  6
6495  6
6496  3
6497  3
6498  10
6499  8
6500  8
6501  2
6502  8
6503  4
6504  8
6505  9
6506  12
6507  7
6508  11
6509  11
6510  12
6511  11
6512  13
6513  11
6514  8
6515  8
6516  6
6517  10
6518  9
6519  8
6520  6
6521  9
6522  5
6523  3
6524  10
6525  3
6526  7
6527  5
6528  5
6529  8
6530  10
6531  9
6532  6
6533  8
6534  7
6535  11
6536  14
6537  12
6538  11
6539  5
6540  5
6541  5
6542  9
6543  3
6544  11
6545  0
6546  5
6547  7
6548  7
6549  6
6550  9
6551  8
6552  6
6553  7
6554  5
6555  4
6556  4
6557  7
6558  10
6559  6
6560  4
6561  6
6562  4
6563  8
6564  4
6565  12
6566  2
6567  2
6568  5
6569  2
6570  6
6571  9
6572  9
6573  6
6574  3
6575  4
6576  3
6577  5
6578  5
6579  5
6580  3
6581  8
6582  3
6583  6
6584  5
6585  8
6586  2
6587  7
6588  7
6589  7
6590  3
6591  7
6592  5
6593  15
6594  7
6595  14
6596  4
6597  6
6598  7
6599  5
6600  7
6601  4
6602  7
6603  1
6604  3
6605  2
6606  3
6607  6
6608  5
6609  3
6610  3
6611  8
6612  3
6613  5
6614  1
6615  3
6616  5
6617  4
6618  5
6619  5
6620  5
6621  6
6622  3
6623  6
6624  5
6625  6
6626  4
6627  8
6628  3
6629  6
6630  3
6631  4
6632  5
6633  7
6634  2
6635  7
6636  8
6637  6
6638  7
6639  3
6640  7
6641  1
6642  5
6643  6
6644  8
6645  4
6646  7
6647  5
6648  6
6649  2
6650  4
6651  4
6652  3
6653  7
6654  6
6655  5
6656  6
6657  7
6658  5
6659  3
6660  4
6661  6
6662  5
6663  6
6664  1
6665  3
6666  3
6667  5
6668  6
6669  2
6670  5
6671  7
6672  2
6673  3
6674  1
6675  9
6676  3
6677  6
6678  2
6679  5
6680  2
6681  5
6682  10
6683  1
6684  4
6685  4
6686  2
6687  1
6688  6
6689  1
6690  5
6691  6
6692  1
6693  3
6694  2
6695  7
6696  6
6697  5
6698  6
6699  7
6700  4
6701  5
6702  6
6703  6
6704  4
6705  5
6706  1
6707  3
6708  4
6709  3
6710  7
6711  4
6712  4
6713  5
6714  6
6715  3
6716  3
6717  1
6718  1
6719  5
6720  7
6721  4
6722  7
6723  6
6724  4
6725  9
6726  3
6727  1
6728  6
6729  4
6730  3
6731  4
6732  6
6733  4
6734  5
6735  5
6736  5
6737  5
6738  4
6739  2
6740  4
6741  8
6742  5
6743  2
6744  1
6745  5
6746  2
6747  3
6748  4
6749  1
6750  6
6751  4
6752  4
6753  6
6754  4
6755  2
6756  4
6757  1
6758  0
6759  3
6760  6
6761  1
6762  2
6763  7
6764  5
6765  6
6766  4
6767  8
6768  3
6769  3
6770  3
6771  2
6772  3
6773  2
6774  2
6775  2
6776  4
6777  0
6778  5
6779  1
6780  4
6781  4
6782  6
6783  4
6784  3
6785  3
6786  2
6787  2
6788  2
6789  5
6790  4
6791  3
6792  5
6793  5
6794  1
6795  4
6796  1
6797  7
6798  2
6799  5
6800  5
6801  1
6802  3
6803  4
6804  5
6805  2
6806  7
6807  10
6808  1
6809  4
6810  4
6811  4
6812  2
6813  3
6814  5
6815  7
6816  6
6817  5
6818  2
6819  4
6820  4
6821  3
6822  3
6823  4
6824  2
6825  5
6826  2
6827  4
6828  5
6829  1
6830  6
6831  2
6832  1
6833  2
6834  1
6835  2
6836  4
6837  4
6838  5
6839  4
6840  6
6841  8
6842  6
6843  11
6844  11
6845  11
6846  10
6847  18
6848  12
6849  21
6850  19
6851  19
6852  7
6853  13
6854  12
6855  15
6856  5
6857  4
6858  7
6859  2
6860  7
6861  4
6862  0
6863  3
6864  1
6865  3
6866  5
6867  3
6868  4
6869  2
6870  4
6871  1
6872  2
6873  4
6874  5
6875  2
6876  4
6877  4
6878  1
6879  2
6880  7
6881  0
6882  3
6883  1
6884  4
6885  3
6886  2
6887  3
6888  1
6889  3
6890  5
6891  5
6892  2
6893  1
6894  3
6895  3
6896  3
6897  4
6898  4
6899  4
6900  5
6901  2
6902  4
6903  3
6904  3
6905  3
6906  0
6907  1
6908  6
6909  2
6910  2
6911  3
6912  2
6913  1
6914  2
6915  3
6916  2
6917  3
6918  2
6919  3
6920  1
6921  1
6922  2
6923  4
6924  1
6925  3
6926  4
6927  1
6928  2
6929  1
6930  3
6931  5
6932  2
6933  3
6934  0
6935  5
6936  0
6937  4
6938  1
6939  3
6940  2
6941  2
6942  0
6943  3
6944  0
6945  2
6946  6
6947  5
6948  1
6949  3
6950  5
6951  4
6952  1
6953  0
6954  2
6955  1
6956  3
6957  2
6958  6
6959  2
6960  0
6961  2
6962  2
6963  3
6964  1
6965  2
6966  0
6967  3
6968  3
6969  4
6970  1
6971  0
6972  3
6973  3
6974  1
6975  4
6976  0
6977  4
6978  2
6979  2
6980  3
6981  2
6982  3
6983  3
6984  0
6985  0
6986  1
6987  3
6988  1
6989  4
6990  4
6991  1
6992  3
6993  1
6994  0
6995  2
6996  0
6997  3
6998  3
6999  1
7000  2
7001  1
7002  2
7003  2
7004  3
7005  1
7006  2
7007  2
7008  1
7009  1
7010  2
7011  1
7012  3
7013  2
7014  1
7015  1
7016  3
7017  3
7018  1
7019  4
7020  3
7021  2
7022  2
7023  2
7024  2
7025  0
7026  1
7027  2
7028  4
7029  4
7030  2
7031  1
7032  4
7033  2
7034  2
7035  0
7036  5
7037  3
7038  1
7039  1
7040  1
7041  2
7042  2
7043  0
7044  3
7045  2
7046  3
7047  3
7048  3
7049  1
7050  4
7051  1
7052  1
7053  1
7054  1
7055  0
7056  0
7057  4
7058  1
7059  1
7060  1
7061  4
7062  4
7063  2
7064  1
7065  3
7066  0
7067  2
7068  2
7069  2
7070  3
7071  2
7072  2
7073  0
7074  2
7075  4
7076  6
7077  1
7078  5
7079  4
7080  2
7081  2
7082  2
7083  2
7084  2
7085  1
7086  2
7087  0
7088  4
7089  1
7090  2
7091  1
7092  3
7093  0
7094  2
7095  1
7096  1
7097  1
7098  6
7099  3
7100  1
7101  2
7102  1
7103  1
7104  1
7105  3
7106  2
7107  2
7108  4
7109  4
7110  4
7111  3
7112  4
7113  1
7114  2
7115  3
7116  3
7117  2
7118  1
7119  1
7120  0
7121  2
7122  1
7123  1
7124  1
7125  4
7126  0
7127  1
7128  2
7129  1
7130  0
7131  1
7132  1
7133  0
7134  5
7135  2
7136  4
7137  3
7138  1
7139  1
7140  2
7141  1
7142  3
7143  1
7144  1
7145  1
7146  1
7147  3
7148  2
7149  0
7150  0
7151  0
7152  0
7153  2
7154  1
7155  1
7156  2
7157  1
7158  0
7159  3
7160  1
7161  3
7162  2
7163  1
7164  2
7165  0
7166  0
7167  3
7168  2
7169  1
7170  1
7171  2
7172  1
7173  4
7174  2
7175  0
7176  0
7177  2
7178  1
7179  2
7180  3
7181  4
7182  0
7183  1
7184  3
7185  1
7186  1
7187  2
7188  2
7189  2
7190  2
7191  1
7192  2
7193  2
7194  1
7195  3
7196  1
7197  2
7198  1
7199  2
7200  3
7201  0
7202  2
7203  3
7204  4
7205  4
7206  2
7207  2
7208  0
7209  3
7210  3
7211  3
7212  0
7213  0
7214  3
7215  1
7216  0
7217  1
7218  2
7219  2
7220  3
7221  1
7222  0
7223  0
7224  3
7225  2
7226  4
7227  0
7228  1
7229  0
7230  3
7231  1
7232  2
7233  2
7234  3
7235  2
7236  1
7237  5
7238  0
7239  0
7240  1
7241  1
7242  1
7243  2
7244  1
7245  1
7246  1
7247  3
7248  2
7249  1
7250  2
7251  0
7252  4
7253  3
7254  4
7255  5
7256  3
7257  2
7258  3
7259  3
7260  3
7261  3
7262  1
7263  2
7264  1
7265  3
7266  0
7267  0
7268  2
7269  1
7270  4
7271  4
7272  2
7273  2
7274  0
7275  1
7276  1
7277  1
7278  1
7279  1
7280  1
7281  3
7282  1
7283  2
7284  0
7285  1
7286  1
7287  2
7288  1
7289  5
7290  0
7291  0
7292  0
7293  1
7294  2
7295  3
7296  1
7297  1
7298  1
7299  2
7300  2
7301  2
7302  1
7303  0
7304  0
7305  1
7306  1
7307  0
7308  1
7309  2
7310  0
7311  4
7312  0
7313  2
7314  5
7315  4
7316  3
7317  2
7318  5
7319  7
7320  1
7321  1
7322  0
7323  2
7324  3
7325  2
7326  0
7327  0
7328  1
7329  1
7330  0
7331  1
7332  3
7333  1
7334  1
7335  2
7336  1
7337  3
7338  1
7339  3
7340  1
7341  3
7342  3
7343  3
7344  1
7345  2
7346  1
7347  0
7348  0
7349  3
7350  2
7351  1
7352  2
7353  1
7354  2
7355  1
7356  0
7357  2
7358  1
7359  6
7360  2
7361  1
7362  1
7363  3
7364  0
7365  3
7366  1
7367  2
7368  1
7369  1
7370  3
7371  2
7372  4
7373  0
7374  0
7375  2
7376  3
7377  1
7378  1
7379  2
7380  2
7381  2
7382  2
7383  2
7384  3
7385  4
7386  4
7387  4
7388  2
7389  5
7390  3
7391  1
7392  3
7393  2
7394  6
7395  5
7396  13
7397  8
7398  12
7399  23
7400  25
7401  38
7402  45
7403  49
7404  58
7405  81
7406  97
7407  113
7408  119
7409  148
7410  161
7411  169
7412  181
7413  176
7414  180
7415  154
7416  144
7417  117
7418  101
7419  56
7420  34
7421  17
7422  27
7423  17
7424  6
7425  7
7426  3
7427  3
7428  3
7429  1
7430  4
7431  1
7432  1
7433  0
7434  0
7435  1
7436  1
7437  0
7438  2
7439  2
7440  1
7441  0
7442  3
7443  1
7444  0
7445  1
7446  1
7447  2
7448  2
7449  3
7450  2
7451  1
7452  0
7453  0
7454  0
7455  0
7456  1
7457  2
7458  2
7459  1
7460  1
7461  0
7462  2
7463  0
7464  2
7465  2
7466  1
7467  2
7468  1
7469  1
7470  1
7471  2
7472  2
7473  2
7474  0
7475  2
7476  1
7477  1
7478  3
7479  1
7480  0
7481  2
7482  2
7483  1
7484  2
7485  0
7486  0
7487  1
7488  1
7489  1
7490  0
7491  1
7492  0
7493  0
7494  1
7495  0
7496  2
7497  0
7498  2
7499  1
7500  1
7501  2
7502  1
7503  2
7504  0
7505  1
7506  0
7507  1
7508  1
7509  0
7510  0
7511  1
7512  1
7513  1
7514  1
7515  1
7516  0
7517  2
7518  2
7519  0
7520  0
7521  1
7522  0
7523  0
7524  0
7525  2
7526  0
7527  1
7528  1
7529  1
7530  0
7531  0
7532  1
7533  1
7534  0
7535  0
7536  1
7537  0
7538  0
7539  2
7540  0
7541  1
7542  1
7543  3
7544  0
7545  1
7546  3
7547  1
7548  1
7549  0
7550  3
7551  0
7552  0
7553  1
7554  3
7555  0
7556  0
7557  2
7558  2
7559  1
7560  3
7561  1
7562  0
7563  0
7564  2
7565  1
7566  1
7567  1
7568  0
7569  0
7570  3
7571  1
7572  0
7573  2
7574  1
7575  1
7576  1
7577  1
7578  0
7579  2
7580  1
7581  0
7582  1
7583  0
7584  2
7585  0
7586  1
7587  0
7588  1
7589  2
7590  1
7591  0
7592  0
7593  1
7594  1
7595  3
7596  1
7597  1
7598  2
7599  0
7600  0
7601  2
7602  3
7603  3
7604  0
7605  1
7606  1
7607  0
7608  1
7609  2
7610  0
7611  0
7612  0
7613  3
7614  0
7615  0
7616  2
7617  1
7618  1
7619  1
7620  2
7621  1
7622  3
7623  0
7624  1
7625  1
7626  1
7627  2
7628  1
7629  0
7630  2
7631  1
7632  2
7633  0
7634  1
7635  1
7636  0
7637  1
7638  2
7639  1
7640  0
7641  2
7642  1
7643  1
7644  1
7645  2
7646  2
7647  2
7648  1
7649  1
7650  1
7651  5
7652  1
7653  1
7654  0
7655  1
7656  2
7657  1
7658  2
7659  3
7660  2
7661  4
7662  4
7663  4
7664  5
7665  6
7666  3
7667  8
7668  6
7669  9
7670  3
7671  7
7672  11
7673  5
7674  7
7675  11
7676  12
7677  15
7678  14
7679  17
7680  18
7681  22
7682  31
7683  31
7684  34
7685  37
7686  48
7687  38
7688  36
7689  31
7690  29
7691  27
7692  11
7693  15
7694  6
7695  13
7696  4
7697  3
7698  0
7699  2
7700  0
7701  1
7702  3
7703  2
7704  0
7705  1
7706  0
7707  1
7708  0
7709  2
7710  0
7711  0
7712  0
7713  1
7714  0
7715  1
7716  1
7717  0
7718  0
7719  1
7720  0
7721  0
7722  1
7723  1
7724  0
7725  0
7726  1
7727  0
7728  0
7729  1
7730  0
7731  0
7732  1
7733  0
7734  1
7735  0
7736  0
7737  0
7738  0
7739  2
7740  2
7741  1
7742  0
7743  2
7744  1
7745  1
7746  0
7747  2
7748  1
7749  2
7750  1
7751  0
7752  2
7753  1
7754  1
7755  1
7756  0
7757  1
7758  0
7759  2
7760  0
7761  0
7762  1
7763  1
7764  0
7765  0
7766  1
7767  0
7768  0
7769  1
7770  0
7771  1
7772  1
7773  1
7774  1
7775  1
7776  3
7777  0
7778  0
7779  0
7780  0
7781  2
7782  0
7783  0
7784  0
7785  0
7786  0
7787  0
7788  1
7789  3
7790  0
7791  2
7792  2
7793  0
7794  0
7795  1
7796  0
7797  2
7798  0
7799  0
7800  0
7801  0
7802  2
7803  2
7804  3
7805  0
7806  2
7807  1
7808  1
7809  1
7810  2
7811  1
7812  0
7813  0
7814  1
7815  0
7816  1
7817  0
7818  2
7819  0
7820  0
7821  1
7822  0
7823  0
7824  0
7825  1
7826  0
7827  1
7828  0
7829  1
7830  2
7831  1
7832  2
7833  2
7834  1
7835  1
7836  2
7837  0
7838  0
7839  1
7840  0
7841  0
7842  0
7843  3
7844  1
7845  1
7846  1
7847  0
7848  1
7849  2
7850  0
7851  0
7852  0
7853  1
7854  1
7855  1
7856  1
7857  2
7858  1
7859  1
7860  0
7861  2
7862  0
7863  1
7864  0
7865  0
7866  1
7867  1
7868  1
7869  1
7870  0
7871  0
7872  0
7873  1
7874  1
7875  0
7876  2
7877  2
7878  0
7879  0
7880  1
7881  0
7882  0
7883  2
7884  1
7885  0
7886  0
7887  0
7888  0
7889  2
7890  1
7891  1
7892  1
7893  1
7894  3
7895  1
7896  0
7897  0
7898  2
7899  1
7900  0
7901  0
7902  0
7903  1
7904  1
7905  0
7906  1
7907  2
7908  2
7909  0
7910  0
7911  0
7912  2
7913  2
7914  2
7915  0
7916  0
7917  0
7918  2
7919  2
7920  0
7921  2
7922  0
7923  0
7924  1
7925  1
7926  0
7927  0
7928  0
7929  1
7930  1
7931  1
7932  2
7933  0
7934  3
7935  1
7936  2
7937  2
7938  2
7939  1
7940  1
7941  0
7942  1
7943  1
7944  3
7945  2
7946  0
7947  5
7948  0
7949  0
7950  0
7951  1
7952  1
7953  0
7954  1
7955  2
7956  0
7957  0
7958  1
7959  0
7960  0
7961  0
7962  2
7963  1
7964  1
7965  0
7966  0
7967  1
7968  0
7969  0
7970  2
7971  1
7972  4
7973  1
7974  2
7975  0
7976  3
7977  0
7978  1
7979  0
7980  1
7981  0
7982  2
7983  0
7984  1
7985  1
7986  1
7987  1
7988  1
7989  0
7990  1
7991  1
7992  1
7993  1
7994  1
7995  1
7996  0
7997  1
7998  0
7999  0
8000  1
8001  0
8002  0
8003  0
8004  0
8005  2
8006  0
8007  0
8008  1
8009  0
8010  1
8011  2
8012  0
8013  1
8014  2
8015  1
8016  0
8017  1
8018  2
8019  1
8020  2
8021  0
8022  1
8023  1
8024  2
8025  3
8026  1
8027  2
8028  1
8029  4
8030  2
8031  1
8032  4
8033  5
8034  10
8035  4
8036  5
8037  5
8038  7
8039  8
8040  8
8041  7
8042  8
8043  5
8044  3
8045  4
8046  3
8047  1
8048  3
8049  3
8050  2
8051  1
8052  2
8053  1
8054  0
8055  1
8056  1
8057  1
8058  1
8059  1
8060  0
8061  0
8062  0
8063  0
8064  0
8065  2
8066  0
8067  0
8068  1
8069  1
8070  0
8071  0
8072  0
8073  3
8074  1
8075  0
8076  1
8077  0
8078  0
8079  0
8080  1
8081  2
8082  0
8083  3
8084  1
8085  0
8086  0
8087  0
8088  0
8089  0
8090  0
8091  0
8092  0
8093  0
8094  1
8095  0
8096  0
8097  1
8098  0
8099  3
8100  1
8101  1
8102  1
8103  1
8104  2
8105  1
8106  0
8107  0
8108  1
8109  1
8110  0
8111  0
8112  0
8113  1
8114  1
8115  0
8116  0
8117  1
8118  0
8119  1
8120  2
8121  1
8122  0
8123  1
8124  2
8125  0
8126  2
8127  2
8128  0
8129  0
8130  1
8131  1
8132  1
8133  1
8134  0
8135  0
8136  1
8137  1
8138  0
8139  2
8140  2
8141  1
8142  0
8143  0
8144  0
8145  0
8146  1
8147  0
8148  0
8149  0
8150  0
8151  1
8152  1
8153  2
8154  0
8155  0
8156  0
8157  0
8158  0
8159  0
8160  0
8161  0
8162  1
8163  0
8164  0
8165  0
8166  0
8167  0
8168  0
8169  1
8170  0
8171  1
8172  0
8173  2
8174  0
8175  1
8176  0
8177  1
8178  0
8179  0
8180  0
8181  0
8182  1
8183  0
8184  1
8185  0
8186  1
8187  0
8188  1
8189  0
8190  0
8191  0
