0  1040
1  0
2  0
3  0
4  0
5  0
6  0
7  0
8  0
9  0
10  0
11  0
12  0
13  0
14  0
15  0
16  0
17  0
18  0
19  0
20  0
21  0
22  0
23  0
24  0
25  0
26  0
27  0
28  0
29  0
30  0
31  0
32  0
33  0
34  0
35  0
36  0
37  0
38  0
39  0
40  0
41  0
42  0
43  0
44  0
45  0
46  0
47  0
48  0
49  0
50  0
51  0
52  0
53  0
54  0
55  0
56  0
57  0
58  0
59  0
60  0
61  0
62  0
63  0
64  0
65  0
66  0
67  0
68  0
69  0
70  0
71  0
72  0
73  0
74  0
75  0
76  0
77  0
78  0
79  0
80  0
81  0
82  0
83  0
84  0
85  0
86  0
87  0
88  0
89  0
90  0
91  0
92  0
93  0
94  0
95  0
96  0
97  0
98  0
99  0
100  0
101  0
102  0
103  0
104  0
105  0
106  0
107  0
108  0
109  0
110  0
111  0
112  0
113  0
114  0
115  0
116  0
117  1
118  0
119  0
120  0
121  0
122  0
123  0
124  0
125  0
126  0
127  2
128  0
129  27
130  161
131  159
132  153
133  133
134  145
135  138
136  167
137  138
138  155
139  151
140  154
141  144
142  145
143  151
144  149
145  154
146  153
147  149
148  133
149  152
150  149
151  144
152  134
153  188
154  134
155  145
156  160
157  142
158  150
159  152
160  144
161  142
162  160
163  145
164  162
165  141
166  138
167  150
168  144
169  147
170  134
171  163
172  166
173  141
174  138
175  158
176  166
177  159
178  169
179  174
180  163
181  159
182  154
183  176
184  146
185  128
186  203
187  164
188  153
189  170
190  158
191  155
192  181
193  160
194  176
195  172
196  155
197  154
198  129
199  168
200  181
201  157
202  186
203  151
204  186
205  174
206  167
207  159
208  181
209  170
210  183
211  170
212  174
213  182
214  187
215  168
216  201
217  199
218  162
219  196
220  162
221  177
222  185
223  200
224  208
225  165
226  168
227  212
228  206
229  202
230  210
231  178
232  195
233  201
234  186
235  201
236  226
237  182
238  186
239  215
240  218
241  202
242  218
243  195
244  211
245  199
246  192
247  177
248  191
249  208
250  224
251  204
252  210
253  221
254  205
255  201
256  209
257  196
258  186
259  205
260  225
261  238
262  213
263  208
264  180
265  190
266  218
267  208
268  219
269  200
270  225
271  201
272  227
273  205
274  218
275  223
276  209
277  210
278  188
279  203
280  214
281  202
282  182
283  195
284  227
285  212
286  194
287  234
288  227
289  232
290  239
291  233
292  233
293  221
294  242
295  215
296  249
297  226
298  246
299  224
300  241
301  236
302  232
303  270
304  241
305  247
306  231
307  267
308  243
309  253
310  252
311  227
312  254
313  217
314  279
315  303
316  359
317  506
318  705
319  1086
320  1594
321  2428
322  3120
323  3722
324  3940
325  3599
326  2991
327  2253
328  1511
329  1084
330  707
331  511
332  384
333  269
334  236
335  208
336  207
337  199
338  188
339  183
340  183
341  174
342  184
343  174
344  169
345  181
346  184
347  160
348  179
349  151
350  177
351  179
352  180
353  168
354  145
355  154
356  188
357  155
358  143
359  142
360  146
361  150
362  153
363  181
364  140
365  144
366  166
367  153
368  175
369  147
370  164
371  163
372  169
373  157
374  164
375  136
376  154
377  138
378  152
379  157
380  152
381  164
382  138
383  152
384  168
385  150
386  150
387  143
388  168
389  177
390  158
391  159
392  157
393  174
394  143
395  140
396  148
397  148
398  131
399  153
400  157
401  143
402  163
403  161
404  148
405  154
406  135
407  153
408  176
409  154
410  163
411  168
412  143
413  168
414  144
415  154
416  132
417  156
418  143
419  143
420  138
421  141
422  179
423  144
424  146
425  141
426  124
427  134
428  147
429  155
430  152
431  141
432  148
433  146
434  141
435  135
436  155
437  185
438  149
439  141
440  174
441  150
442  154
443  163
444  129
445  138
446  148
447  147
448  147
449  140
450  128
451  146
452  154
453  147
454  137
455  133
456  150
457  147
458  172
459  153
460  150
461  164
462  151
463  138
464  159
465  116
466  147
467  109
468  134
469  131
470  153
471  125
472  158
473  142
474  154
475  133
476  146
477  131
478  144
479  120
480  155
481  132
482  144
483  143
484  140
485  131
486  132
487  144
488  137
489  141
490  154
491  128
492  140
493  122
494  139
495  140
496  116
497  135
498  146
499  130
500  133
501  129
502  133
503  119
504  148
505  128
506  146
507  143
508  120
509  141
510  133
511  132
512  119
513  124
514  152
515  138
516  124
517  150
518  140
519  150
520  132
521  138
522  161
523  136
524  143
525  126
526  133
527  142
528  125
529  126
530  140
531  166
532  143
533  133
534  113
535  150
536  116
537  132
538  121
539  142
540  137
541  105
542  142
543  111
544  134
545  145
546  127
547  139
548  133
549  117
550  126
551  129
552  109
553  128
554  120
555  106
556  117
557  117
558  116
559  123
560  111
561  121
562  120
563  131
564  133
565  112
566  115
567  95
568  117
569  107
570  119
571  106
572  108
573  120
574  97
575  125
576  105
577  114
578  120
579  95
580  103
581  96
582  97
583  102
584  87
585  105
586  119
587  100
588  99
589  116
590  84
591  103
592  99
593  93
594  98
595  87
596  103
597  101
598  99
599  102
600  115
601  105
602  90
603  103
604  99
605  98
606  99
607  93
608  99
609  94
610  91
611  84
612  102
613  75
614  85
615  106
616  102
617  104
618  98
619  99
620  93
621  75
622  97
623  96
624  97
625  94
626  99
627  108
628  99
629  84
630  99
631  96
632  94
633  85
634  116
635  96
636  73
637  88
638  102
639  104
640  105
641  88
642  84
643  84
644  90
645  79
646  79
647  87
648  82
649  100
650  100
651  76
652  94
653  89
654  98
655  88
656  97
657  90
658  84
659  103
660  82
661  91
662  85
663  95
664  68
665  90
666  90
667  94
668  80
669  91
670  90
671  97
672  99
673  91
674  82
675  101
676  85
677  86
678  97
679  91
680  96
681  100
682  108
683  105
684  99
685  102
686  85
687  77
688  81
689  111
690  112
691  122
692  108
693  152
694  206
695  289
696  401
697  502
698  633
699  615
700  656
701  522
702  401
703  318
704  177
705  180
706  133
707  103
708  95
709  86
710  74
711  96
712  90
713  80
714  69
715  77
716  74
717  62
718  76
719  67
720  76
721  75
722  82
723  75
724  93
725  72
726  77
727  68
728  77
729  92
730  65
731  66
732  75
733  64
734  59
735  53
736  74
737  71
738  79
739  67
740  59
741  77
742  65
743  64
744  60
745  73
746  69
747  68
748  69
749  69
750  64
751  55
752  77
753  60
754  61
755  69
756  66
757  65
758  67
759  76
760  63
761  58
762  60
763  69
764  64
765  64
766  47
767  73
768  57
769  57
770  56
771  67
772  69
773  60
774  62
775  69
776  67
777  74
778  71
779  84
780  82
781  69
782  60
783  60
784  74
785  80
786  72
787  59
788  62
789  73
790  53
791  58
792  63
793  65
794  77
795  62
796  66
797  59
798  68
799  69
800  55
801  64
802  66
803  51
804  58
805  64
806  62
807  68
808  74
809  51
810  89
811  68
812  63
813  62
814  56
815  54
816  49
817  55
818  74
819  62
820  59
821  62
822  66
823  64
824  66
825  67
826  60
827  58
828  67
829  51
830  49
831  47
832  45
833  61
834  65
835  69
836  53
837  54
838  60
839  71
840  63
841  51
842  54
843  60
844  57
845  42
846  54
847  56
848  61
849  84
850  73
851  63
852  67
853  92
854  87
855  83
856  86
857  81
858  85
859  70
860  64
861  54
862  45
863  49
864  61
865  70
866  63
867  55
868  62
869  45
870  63
871  51
872  43
873  50
874  53
875  49
876  50
877  50
878  45
879  50
880  71
881  44
882  42
883  51
884  53
885  41
886  61
887  62
888  48
889  43
890  53
891  54
892  55
893  61
894  63
895  42
896  55
897  60
898  43
899  60
900  43
901  54
902  53
903  72
904  42
905  52
906  64
907  42
908  51
909  51
910  55
911  63
912  45
913  53
914  53
915  54
916  67
917  59
918  51
919  43
920  36
921  56
922  50
923  45
924  35
925  47
926  59
927  61
928  66
929  53
930  39
931  46
932  48
933  45
934  55
935  44
936  45
937  48
938  57
939  60
940  57
941  55
942  59
943  58
944  60
945  47
946  48
947  41
948  48
949  38
950  55
951  54
952  62
953  55
954  50
955  44
956  55
957  48
958  54
959  62
960  50
961  41
962  54
963  49
964  49
965  44
966  48
967  55
968  51
969  50
970  40
971  38
972  43
973  46
974  46
975  40
976  46
977  56
978  38
979  41
980  47
981  55
982  52
983  55
984  47
985  73
986  52
987  64
988  60
989  58
990  50
991  43
992  41
993  47
994  76
995  112
996  161
997  273
998  376
999  614
1000  900
1001  1132
1002  1329
1003  1303
1004  1289
1005  1037
1006  841
1007  563
1008  434
1009  287
1010  148
1011  114
1012  87
1013  88
1014  54
1015  51
1016  50
1017  53
1018  45
1019  44
1020  54
1021  57
1022  54
1023  53
1024  58
1025  55
1026  65
1027  66
1028  42
1029  69
1030  57
1031  58
1032  40
1033  42
1034  43
1035  32
1036  58
1037  48
1038  49
1039  42
1040  51
1041  41
1042  37
1043  52
1044  40
1045  45
1046  34
1047  40
1048  44
1049  41
1050  42
1051  41
1052  52
1053  46
1054  26
1055  47
1056  37
1057  34
1058  40
1059  46
1060  34
1061  42
1062  40
1063  32
1064  43
1065  45
1066  52
1067  38
1068  57
1069  57
1070  66
1071  62
1072  64
1073  67
1074  73
1075  82
1076  69
1077  59
1078  57
1079  48
1080  50
1081  47
1082  40
1083  35
1084  47
1085  40
1086  37
1087  32
1088  32
1089  44
1090  33
1091  32
1092  33
1093  28
1094  34
1095  41
1096  33
1097  33
1098  41
1099  32
1100  41
1101  38
1102  39
1103  37
1104  35
1105  32
1106  41
1107  40
1108  36
1109  45
1110  39
1111  42
1112  37
1113  39
1114  31
1115  47
1116  22
1117  30
1118  36
1119  30
1120  30
1121  34
1122  34
1123  45
1124  34
1125  49
1126  41
1127  31
1128  35
1129  47
1130  25
1131  46
1132  42
1133  33
1134  47
1135  37
1136  39
1137  34
1138  36
1139  30
1140  32
1141  28
1142  50
1143  40
1144  31
1145  43
1146  26
1147  43
1148  27
1149  30
1150  28
1151  40
1152  36
1153  38
1154  38
1155  33
1156  37
1157  36
1158  33
1159  36
1160  37
1161  34
1162  38
1163  44
1164  40
1165  32
1166  39
1167  28
1168  45
1169  34
1170  45
1171  27
1172  46
1173  30
1174  36
1175  42
1176  27
1177  35
1178  39
1179  36
1180  34
1181  27
1182  35
1183  39
1184  30
1185  29
1186  30
1187  41
1188  31
1189  37
1190  33
1191  31
1192  31
1193  32
1194  32
1195  45
1196  37
1197  41
1198  39
1199  42
1200  51
1201  49
1202  56
1203  65
1204  85
1205  113
1206  95
1207  105
1208  107
1209  100
1210  88
1211  75
1212  63
1213  53
1214  49
1215  46
1216  33
1217  41
1218  38
1219  49
1220  41
1221  42
1222  39
1223  42
1224  40
1225  24
1226  28
1227  46
1228  38
1229  32
1230  35
1231  33
1232  33
1233  27
1234  24
1235  35
1236  28
1237  34
1238  26
1239  23
1240  40
1241  39
1242  35
1243  34
1244  33
1245  38
1246  36
1247  35
1248  31
1249  32
1250  45
1251  44
1252  44
1253  40
1254  38
1255  34
1256  31
1257  32
1258  34
1259  40
1260  44
1261  29
1262  27
1263  42
1264  37
1265  33
1266  38
1267  32
1268  39
1269  31
1270  33
1271  31
1272  33
1273  41
1274  29
1275  32
1276  34
1277  27
1278  38
1279  31
1280  36
1281  30
1282  41
1283  39
1284  31
1285  35
1286  29
1287  24
1288  38
1289  40
1290  42
1291  25
1292  31
1293  37
1294  28
1295  30
1296  39
1297  36
1298  34
1299  34
1300  44
1301  45
1302  53
1303  59
1304  99
1305  116
1306  129
1307  150
1308  139
1309  115
1310  109
1311  98
1312  65
1313  44
1314  52
1315  37
1316  43
1317  35
1318  33
1319  30
1320  35
1321  34
1322  30
1323  33
1324  35
1325  35
1326  32
1327  39
1328  36
1329  33
1330  40
1331  26
1332  26
1333  38
1334  30
1335  24
1336  25
1337  30
1338  21
1339  36
1340  23
1341  26
1342  25
1343  31
1344  25
1345  31
1346  39
1347  32
1348  48
1349  38
1350  34
1351  30
1352  23
1353  36
1354  36
1355  43
1356  29
1357  37
1358  28
1359  38
1360  31
1361  30
1362  35
1363  31
1364  29
1365  30
1366  34
1367  33
1368  26
1369  38
1370  27
1371  37
1372  27
1373  29
1374  30
1375  28
1376  37
1377  49
1378  28
1379  28
1380  31
1381  29
1382  30
1383  38
1384  31
1385  37
1386  28
1387  24
1388  35
1389  19
1390  36
1391  22
1392  30
1393  27
1394  32
1395  32
1396  43
1397  36
1398  25
1399  38
1400  35
1401  36
1402  37
1403  28
1404  28
1405  30
1406  35
1407  38
1408  32
1409  22
1410  38
1411  45
1412  40
1413  27
1414  31
1415  25
1416  42
1417  37
1418  29
1419  31
1420  25
1421  40
1422  23
1423  36
1424  27
1425  37
1426  30
1427  36
1428  31
1429  32
1430  31
1431  36
1432  32
1433  41
1434  38
1435  33
1436  29
1437  37
1438  29
1439  33
1440  41
1441  39
1442  37
1443  33
1444  43
1445  33
1446  57
1447  42
1448  40
1449  41
1450  30
1451  35
1452  31
1453  39
1454  36
1455  29
1456  31
1457  33
1458  29
1459  28
1460  40
1461  31
1462  32
1463  39
1464  25
1465  31
1466  41
1467  28
1468  31
1469  41
1470  33
1471  36
1472  26
1473  30
1474  27
1475  28
1476  24
1477  32
1478  32
1479  34
1480  31
1481  31
1482  23
1483  31
1484  24
1485  30
1486  32
1487  31
1488  34
1489  35
1490  40
1491  39
1492  25
1493  38
1494  32
1495  42
1496  26
1497  33
1498  30
1499  36
1500  35
1501  36
1502  30
1503  31
1504  40
1505  45
1506  33
1507  36
1508  44
1509  29
1510  38
1511  43
1512  45
1513  35
1514  43
1515  34
1516  27
1517  52
1518  44
1519  43
1520  40
1521  36
1522  35
1523  26
1524  27
1525  20
1526  20
1527  28
1528  28
1529  35
1530  34
1531  28
1532  29
1533  30
1534  38
1535  26
1536  30
1537  25
1538  35
1539  32
1540  24
1541  28
1542  31
1543  33
1544  32
1545  34
1546  47
1547  24
1548  40
1549  27
1550  30
1551  40
1552  35
1553  27
1554  34
1555  34
1556  28
1557  41
1558  29
1559  36
1560  22
1561  34
1562  31
1563  29
1564  30
1565  27
1566  29
1567  26
1568  33
1569  28
1570  38
1571  31
1572  35
1573  27
1574  34
1575  34
1576  27
1577  43
1578  34
1579  39
1580  35
1581  37
1582  29
1583  34
1584  26
1585  37
1586  39
1587  27
1588  35
1589  37
1590  35
1591  39
1592  31
1593  19
1594  32
1595  28
1596  42
1597  29
1598  30
1599  28
1600  26
1601  32
1602  39
1603  33
1604  35
1605  38
1606  24
1607  34
1608  36
1609  27
1610  25
1611  30
1612  30
1613  29
1614  26
1615  41
1616  30
1617  31
1618  33
1619  30
1620  28
1621  29
1622  36
1623  26
1624  28
1625  31
1626  39
1627  29
1628  33
1629  38
1630  33
1631  31
1632  29
1633  27
1634  31
1635  27
1636  29
1637  45
1638  30
1639  30
1640  32
1641  30
1642  26
1643  34
1644  30
1645  17
1646  32
1647  36
1648  18
1649  31
1650  27
1651  42
1652  36
1653  35
1654  26
1655  42
1656  32
1657  32
1658  33
1659  24
1660  29
1661  36
1662  34
1663  41
1664  27
1665  31
1666  33
1667  27
1668  31
1669  35
1670  50
1671  44
1672  47
1673  54
1674  41
1675  38
1676  51
1677  36
1678  41
1679  34
1680  40
1681  36
1682  44
1683  29
1684  34
1685  40
1686  30
1687  42
1688  35
1689  43
1690  32
1691  26
1692  31
1693  25
1694  38
1695  37
1696  22
1697  29
1698  44
1699  32
1700  30
1701  31
1702  31
1703  33
1704  32
1705  37
1706  37
1707  27
1708  27
1709  34
1710  34
1711  49
1712  26
1713  42
1714  27
1715  25
1716  31
1717  39
1718  38
1719  29
1720  36
1721  30
1722  34
1723  36
1724  40
1725  24
1726  22
1727  38
1728  29
1729  31
1730  41
1731  56
1732  23
1733  35
1734  37
1735  31
1736  43
1737  42
1738  50
1739  37
1740  47
1741  48
1742  43
1743  41
1744  28
1745  31
1746  30
1747  39
1748  44
1749  22
1750  34
1751  30
1752  27
1753  34
1754  23
1755  31
1756  33
1757  34
1758  23
1759  20
1760  30
1761  25
1762  21
1763  32
1764  18
1765  17
1766  25
1767  41
1768  34
1769  26
1770  23
1771  25
1772  29
1773  28
1774  21
1775  33
1776  29
1777  34
1778  27
1779  28
1780  25
1781  31
1782  25
1783  34
1784  23
1785  28
1786  22
1787  22
1788  20
1789  36
1790  25
1791  24
1792  24
1793  21
1794  20
1795  24
1796  31
1797  27
1798  23
1799  29
1800  29
1801  26
1802  31
1803  29
1804  40
1805  26
1806  36
1807  36
1808  30
1809  47
1810  45
1811  25
1812  46
1813  38
1814  38
1815  28
1816  34
1817  27
1818  26
1819  27
1820  33
1821  30
1822  26
1823  27
1824  31
1825  25
1826  29
1827  25
1828  22
1829  25
1830  34
1831  24
1832  22
1833  26
1834  17
1835  31
1836  30
1837  21
1838  25
1839  31
1840  40
1841  36
1842  17
1843  30
1844  28
1845  24
1846  22
1847  34
1848  21
1849  30
1850  20
1851  28
1852  32
1853  28
1854  30
1855  30
1856  37
1857  27
1858  27
1859  29
1860  31
1861  29
1862  25
1863  33
1864  23
1865  26
1866  24
1867  23
1868  24
1869  24
1870  16
1871  22
1872  23
1873  26
1874  26
1875  31
1876  24
1877  25
1878  23
1879  23
1880  32
1881  17
1882  28
1883  19
1884  27
1885  19
1886  26
1887  25
1888  38
1889  18
1890  27
1891  31
1892  25
1893  25
1894  32
1895  26
1896  37
1897  18
1898  24
1899  29
1900  34
1901  24
1902  23
1903  29
1904  24
1905  22
1906  15
1907  22
1908  24
1909  23
1910  20
1911  26
1912  24
1913  28
1914  26
1915  25
1916  28
1917  29
1918  35
1919  27
1920  27
1921  32
1922  28
1923  26
1924  30
1925  25
1926  22
1927  24
1928  25
1929  14
1930  20
1931  36
1932  32
1933  16
1934  26
1935  24
1936  27
1937  33
1938  30
1939  21
1940  33
1941  31
1942  21
1943  39
1944  24
1945  24
1946  21
1947  22
1948  24
1949  24
1950  28
1951  28
1952  27
1953  27
1954  29
1955  24
1956  35
1957  20
1958  25
1959  26
1960  30
1961  26
1962  30
1963  31
1964  28
1965  26
1966  23
1967  33
1968  20
1969  23
1970  26
1971  22
1972  22
1973  19
1974  26
1975  23
1976  30
1977  24
1978  32
1979  38
1980  35
1981  31
1982  35
1983  27
1984  27
1985  28
1986  31
1987  32
1988  24
1989  29
1990  29
1991  18
1992  24
1993  33
1994  22
1995  39
1996  24
1997  20
1998  27
1999  27
2000  30
2001  26
2002  24
2003  28
2004  21
2005  30
2006  24
2007  29
2008  22
2009  31
2010  29
2011  27
2012  36
2013  20
2014  30
2015  30
2016  29
2017  25
2018  29
2019  34
2020  32
2021  30
2022  21
2023  26
2024  43
2025  28
2026  19
2027  27
2028  35
2029  29
2030  15
2031  26
2032  30
2033  21
2034  28
2035  19
2036  25
2037  20
2038  31
2039  20
2040  26
2041  22
2042  25
2043  24
2044  16
2045  26
2046  29
2047  30
2048  20
2049  24
2050  36
2051  41
2052  37
2053  44
2054  41
2055  31
2056  34
2057  41
2058  32
2059  25
2060  29
2061  30
2062  41
2063  34
2064  26
2065  20
2066  27
2067  30
2068  21
2069  31
2070  21
2071  31
2072  31
2073  35
2074  16
2075  24
2076  27
2077  24
2078  25
2079  31
2080  32
2081  29
2082  21
2083  25
2084  32
2085  27
2086  20
2087  20
2088  22
2089  21
2090  33
2091  30
2092  25
2093  19
2094  19
2095  18
2096  29
2097  21
2098  31
2099  26
2100  29
2101  27
2102  26
2103  32
2104  20
2105  19
2106  25
2107  28
2108  25
2109  25
2110  31
2111  22
2112  26
2113  23
2114  33
2115  25
2116  21
2117  20
2118  27
2119  25
2120  24
2121  27
2122  20
2123  27
2124  28
2125  21
2126  31
2127  28
2128  25
2129  24
2130  24
2131  24
2132  27
2133  26
2134  32
2135  24
2136  21
2137  10
2138  28
2139  24
2140  23
2141  23
2142  12
2143  20
2144  28
2145  18
2146  18
2147  23
2148  29
2149  24
2150  22
2151  28
2152  32
2153  22
2154  33
2155  24
2156  31
2157  32
2158  33
2159  29
2160  29
2161  28
2162  26
2163  21
2164  21
2165  23
2166  28
2167  18
2168  27
2169  25
2170  25
2171  31
2172  22
2173  32
2174  26
2175  32
2176  25
2177  27
2178  20
2179  27
2180  32
2181  21
2182  23
2183  37
2184  26
2185  27
2186  26
2187  16
2188  23
2189  22
2190  16
2191  19
2192  27
2193  31
2194  22
2195  20
2196  19
2197  26
2198  28
2199  19
2200  31
2201  22
2202  26
2203  28
2204  20
2205  29
2206  25
2207  22
2208  35
2209  27
2210  16
2211  23
2212  24
2213  40
2214  23
2215  20
2216  26
2217  24
2218  33
2219  31
2220  25
2221  29
2222  30
2223  25
2224  28
2225  25
2226  26
2227  24
2228  24
2229  35
2230  32
2231  28
2232  25
2233  23
2234  26
2235  26
2236  21
2237  20
2238  22
2239  27
2240  32
2241  26
2242  34
2243  19
2244  19
2245  33
2246  37
2247  19
2248  33
2249  32
2250  26
2251  26
2252  24
2253  23
2254  19
2255  24
2256  25
2257  26
2258  34
2259  38
2260  39
2261  25
2262  23
2263  33
2264  32
2265  18
2266  27
2267  33
2268  28
2269  35
2270  23
2271  16
2272  27
2273  23
2274  19
2275  29
2276  16
2277  23
2278  31
2279  19
2280  29
2281  36
2282  22
2283  24
2284  35
2285  33
2286  31
2287  22
2288  29
2289  25
2290  24
2291  24
2292  27
2293  21
2294  39
2295  28
2296  24
2297  30
2298  18
2299  26
2300  26
2301  23
2302  23
2303  22
2304  20
2305  25
2306  26
2307  29
2308  20
2309  12
2310  27
2311  30
2312  29
2313  21
2314  27
2315  20
2316  19
2317  34
2318  23
2319  27
2320  21
2321  23
2322  28
2323  32
2324  44
2325  44
2326  67
2327  73
2328  108
2329  139
2330  161
2331  189
2332  242
2333  258
2334  202
2335  188
2336  163
2337  122
2338  89
2339  67
2340  54
2341  48
2342  34
2343  26
2344  36
2345  21
2346  19
2347  20
2348  21
2349  22
2350  14
2351  15
2352  24
2353  22
2354  17
2355  23
2356  24
2357  27
2358  26
2359  18
2360  20
2361  19
2362  22
2363  22
2364  16
2365  14
2366  22
2367  23
2368  23
2369  22
2370  18
2371  15
2372  20
2373  18
2374  26
2375  25
2376  28
2377  13
2378  17
2379  22
2380  36
2381  21
2382  18
2383  21
2384  22
2385  22
2386  23
2387  26
2388  15
2389  21
2390  24
2391  33
2392  20
2393  21
2394  23
2395  22
2396  20
2397  19
2398  22
2399  20
2400  26
2401  17
2402  16
2403  16
2404  18
2405  13
2406  23
2407  25
2408  13
2409  19
2410  27
2411  21
2412  25
2413  17
2414  28
2415  23
2416  19
2417  17
2418  24
2419  14
2420  25
2421  19
2422  28
2423  20
2424  24
2425  18
2426  23
2427  29
2428  20
2429  28
2430  36
2431  27
2432  30
2433  20
2434  24
2435  15
2436  23
2437  16
2438  33
2439  20
2440  18
2441  19
2442  16
2443  23
2444  21
2445  19
2446  15
2447  15
2448  22
2449  20
2450  20
2451  26
2452  15
2453  15
2454  21
2455  17
2456  25
2457  18
2458  17
2459  17
2460  13
2461  14
2462  22
2463  33
2464  31
2465  28
2466  25
2467  18
2468  19
2469  25
2470  20
2471  16
2472  20
2473  20
2474  15
2475  22
2476  17
2477  15
2478  16
2479  23
2480  28
2481  21
2482  21
2483  23
2484  21
2485  26
2486  23
2487  23
2488  15
2489  22
2490  20
2491  23
2492  19
2493  24
2494  19
2495  17
2496  15
2497  31
2498  17
2499  26
2500  17
2501  18
2502  21
2503  21
2504  15
2505  20
2506  16
2507  29
2508  15
2509  23
2510  21
2511  16
2512  15
2513  21
2514  26
2515  25
2516  28
2517  32
2518  28
2519  20
2520  24
2521  21
2522  24
2523  30
2524  18
2525  31
2526  27
2527  13
2528  16
2529  21
2530  19
2531  29
2532  24
2533  18
2534  15
2535  20
2536  18
2537  16
2538  17
2539  24
2540  30
2541  24
2542  18
2543  18
2544  25
2545  18
2546  18
2547  21
2548  30
2549  15
2550  26
2551  24
2552  23
2553  24
2554  14
2555  17
2556  24
2557  17
2558  27
2559  27
2560  24
2561  18
2562  22
2563  30
2564  20
2565  18
2566  19
2567  20
2568  28
2569  23
2570  16
2571  19
2572  19
2573  15
2574  28
2575  25
2576  21
2577  24
2578  18
2579  20
2580  26
2581  9
2582  31
2583  19
2584  18
2585  23
2586  27
2587  19
2588  25
2589  25
2590  23
2591  16
2592  28
2593  23
2594  32
2595  29
2596  34
2597  40
2598  43
2599  61
2600  66
2601  78
2602  76
2603  98
2604  58
2605  59
2606  68
2607  47
2608  50
2609  40
2610  37
2611  24
2612  36
2613  24
2614  18
2615  22
2616  22
2617  21
2618  18
2619  28
2620  23
2621  19
2622  17
2623  31
2624  27
2625  25
2626  18
2627  33
2628  21
2629  16
2630  22
2631  14
2632  19
2633  21
2634  19
2635  12
2636  25
2637  30
2638  17
2639  15
2640  20
2641  26
2642  22
2643  16
2644  22
2645  22
2646  15
2647  22
2648  22
2649  20
2650  28
2651  21
2652  22
2653  18
2654  21
2655  17
2656  18
2657  19
2658  24
2659  22
2660  23
2661  22
2662  12
2663  16
2664  15
2665  16
2666  29
2667  18
2668  25
2669  26
2670  23
2671  26
2672  19
2673  15
2674  19
2675  19
2676  13
2677  25
2678  20
2679  23
2680  14
2681  24
2682  16
2683  19
2684  20
2685  24
2686  21
2687  17
2688  26
2689  28
2690  20
2691  27
2692  21
2693  14
2694  19
2695  25
2696  28
2697  18
2698  12
2699  21
2700  14
2701  20
2702  10
2703  21
2704  26
2705  15
2706  14
2707  14
2708  18
2709  20
2710  10
2711  18
2712  21
2713  18
2714  17
2715  19
2716  19
2717  11
2718  14
2719  16
2720  20
2721  15
2722  22
2723  17
2724  15
2725  7
2726  16
2727  14
2728  25
2729  19
2730  22
2731  13
2732  17
2733  18
2734  13
2735  23
2736  20
2737  19
2738  22
2739  20
2740  15
2741  13
2742  15
2743  12
2744  26
2745  15
2746  10
2747  17
2748  13
2749  14
2750  20
2751  13
2752  9
2753  19
2754  14
2755  11
2756  18
2757  15
2758  22
2759  23
2760  22
2761  23
2762  15
2763  13
2764  25
2765  15
2766  18
2767  12
2768  14
2769  9
2770  17
2771  11
2772  10
2773  11
2774  17
2775  20
2776  16
2777  14
2778  17
2779  14
2780  17
2781  12
2782  21
2783  17
2784  12
2785  19
2786  17
2787  15
2788  11
2789  13
2790  10
2791  11
2792  14
2793  13
2794  10
2795  13
2796  18
2797  9
2798  17
2799  18
2800  12
2801  9
2802  16
2803  12
2804  11
2805  12
2806  13
2807  15
2808  17
2809  16
2810  9
2811  16
2812  14
2813  12
2814  18
2815  14
2816  13
2817  17
2818  10
2819  12
2820  15
2821  13
2822  15
2823  13
2824  13
2825  8
2826  9
2827  9
2828  16
2829  8
2830  12
2831  11
2832  11
2833  14
2834  16
2835  16
2836  15
2837  15
2838  10
2839  19
2840  6
2841  8
2842  12
2843  11
2844  13
2845  15
2846  17
2847  18
2848  12
2849  14
2850  16
2851  11
2852  10
2853  12
2854  7
2855  9
2856  16
2857  15
2858  15
2859  11
2860  16
2861  12
2862  19
2863  8
2864  12
2865  10
2866  19
2867  10
2868  23
2869  13
2870  16
2871  8
2872  17
2873  11
2874  9
2875  11
2876  12
2877  18
2878  12
2879  10
2880  14
2881  8
2882  10
2883  22
2884  12
2885  23
2886  32
2887  31
2888  42
2889  51
2890  94
2891  101
2892  169
2893  184
2894  186
2895  203
2896  187
2897  157
2898  132
2899  89
2900  70
2901  54
2902  50
2903  29
2904  26
2905  21
2906  18
2907  13
2908  15
2909  22
2910  20
2911  16
2912  18
2913  13
2914  23
2915  12
2916  10
2917  7
2918  14
2919  8
2920  10
2921  10
2922  6
2923  13
2924  5
2925  10
2926  11
2927  13
2928  14
2929  12
2930  10
2931  11
2932  14
2933  20
2934  14
2935  10
2936  10
2937  7
2938  13
2939  7
2940  14
2941  6
2942  6
2943  16
2944  15
2945  11
2946  12
2947  8
2948  14
2949  7
2950  12
2951  13
2952  9
2953  9
2954  15
2955  13
2956  9
2957  10
2958  9
2959  13
2960  8
2961  16
2962  19
2963  9
2964  10
2965  13
2966  15
2967  16
2968  15
2969  17
2970  10
2971  8
2972  11
2973  10
2974  15
2975  9
2976  12
2977  12
2978  17
2979  9
2980  12
2981  10
2982  11
2983  11
2984  11
2985  9
2986  13
2987  13
2988  12
2989  11
2990  14
2991  9
2992  9
2993  13
2994  13
2995  18
2996  9
2997  9
2998  8
2999  9
3000  17
3001  11
3002  11
3003  9
3004  8
3005  11
3006  16
3007  13
3008  8
3009  15
3010  10
3011  15
3012  12
3013  18
3014  19
3015  16
3016  13
3017  19
3018  19
3019  22
3020  16
3021  16
3022  17
3023  18
3024  15
3025  14
3026  12
3027  15
3028  12
3029  6
3030  10
3031  9
3032  7
3033  10
3034  7
3035  11
3036  11
3037  7
3038  11
3039  13
3040  15
3041  15
3042  8
3043  11
3044  14
3045  14
3046  3
3047  10
3048  8
3049  8
3050  15
3051  8
3052  6
3053  9
3054  12
3055  7
3056  13
3057  8
3058  12
3059  15
3060  5
3061  7
3062  13
3063  8
3064  11
3065  9
3066  4
3067  6
3068  10
3069  10
3070  5
3071  4
3072  11
3073  11
3074  5
3075  11
3076  12
3077  6
3078  8
3079  6
3080  7
3081  12
3082  13
3083  7
3084  12
3085  10
3086  6
3087  11
3088  8
3089  12
3090  9
3091  17
3092  13
3093  10
3094  8
3095  5
3096  7
3097  10
3098  8
3099  18
3100  13
3101  7
3102  15
3103  12
3104  10
3105  10
3106  6
3107  13
3108  10
3109  14
3110  8
3111  11
3112  4
3113  2
3114  7
3115  12
3116  8
3117  4
3118  5
3119  8
3120  7
3121  5
3122  16
3123  5
3124  10
3125  5
3126  6
3127  8
3128  11
3129  11
3130  9
3131  10
3132  10
3133  11
3134  13
3135  5
3136  5
3137  7
3138  12
3139  12
3140  10
3141  14
3142  13
3143  8
3144  11
3145  4
3146  11
3147  14
3148  9
3149  10
3150  12
3151  4
3152  13
3153  18
3154  8
3155  11
3156  10
3157  9
3158  8
3159  11
3160  15
3161  12
3162  3
3163  7
3164  8
3165  8
3166  9
3167  11
3168  13
3169  10
3170  9
3171  10
3172  10
3173  4
3174  10
3175  11
3176  8
3177  10
3178  8
3179  9
3180  9
3181  3
3182  9
3183  6
3184  8
3185  7
3186  15
3187  8
3188  11
3189  13
3190  14
3191  11
3192  12
3193  7
3194  10
3195  13
3196  8
3197  11
3198  10
3199  5
3200  5
3201  7
3202  8
3203  12
3204  8
3205  11
3206  13
3207  19
3208  8
3209  6
3210  9
3211  11
3212  18
3213  4
3214  11
3215  12
3216  9
3217  8
3218  9
3219  6
3220  4
3221  2
3222  8
3223  10
3224  8
3225  6
3226  13
3227  8
3228  11
3229  14
3230  7
3231  10
3232  6
3233  11
3234  14
3235  8
3236  9
3237  6
3238  10
3239  13
3240  8
3241  10
3242  11
3243  10
3244  13
3245  8
3246  2
3247  10
3248  9
3249  12
3250  13
3251  8
3252  9
3253  15
3254  9
3255  21
3256  19
3257  17
3258  30
3259  43
3260  59
3261  80
3262  97
3263  102
3264  111
3265  138
3266  128
3267  105
3268  74
3269  75
3270  58
3271  44
3272  45
3273  40
3274  29
3275  30
3276  28
3277  28
3278  35
3279  28
3280  20
3281  19
3282  26
3283  24
3284  14
3285  10
3286  19
3287  8
3288  10
3289  8
3290  6
3291  9
3292  7
3293  7
3294  6
3295  10
3296  9
3297  12
3298  11
3299  9
3300  6
3301  13
3302  14
3303  12
3304  9
3305  11
3306  5
3307  12
3308  5
3309  12
3310  12
3311  9
3312  9
3313  7
3314  5
3315  16
3316  10
3317  11
3318  5
3319  7
3320  9
3321  7
3322  9
3323  10
3324  9
3325  7
3326  4
3327  10
3328  12
3329  12
3330  6
3331  9
3332  9
3333  11
3334  20
3335  18
3336  32
3337  29
3338  44
3339  61
3340  58
3341  114
3342  110
3343  126
3344  145
3345  168
3346  149
3347  109
3348  112
3349  95
3350  70
3351  32
3352  31
3353  25
3354  17
3355  16
3356  18
3357  13
3358  9
3359  11
3360  11
3361  8
3362  11
3363  17
3364  16
3365  16
3366  14
3367  8
3368  8
3369  8
3370  11
3371  17
3372  9
3373  8
3374  20
3375  8
3376  9
3377  22
3378  18
3379  9
3380  10
3381  17
3382  14
3383  6
3384  5
3385  11
3386  7
3387  10
3388  6
3389  8
3390  11
3391  16
3392  4
3393  12
3394  10
3395  9
3396  10
3397  12
3398  8
3399  15
3400  10
3401  7
3402  8
3403  10
3404  13
3405  11
3406  10
3407  13
3408  7
3409  10
3410  6
3411  9
3412  7
3413  13
3414  8
3415  11
3416  13
3417  7
3418  10
3419  7
3420  5
3421  11
3422  13
3423  11
3424  15
3425  15
3426  13
3427  9
3428  9
3429  7
3430  8
3431  7
3432  8
3433  13
3434  11
3435  8
3436  9
3437  9
3438  8
3439  14
3440  11
3441  6
3442  11
3443  12
3444  10
3445  9
3446  10
3447  8
3448  8
3449  10
3450  10
3451  7
3452  16
3453  16
3454  14
3455  6
3456  11
3457  13
3458  7
3459  3
3460  11
3461  13
3462  9
3463  6
3464  6
3465  11
3466  8
3467  9
3468  7
3469  10
3470  13
3471  11
3472  12
3473  14
3474  4
3475  9
3476  14
3477  10
3478  12
3479  11
3480  8
3481  6
3482  8
3483  13
3484  7
3485  5
3486  21
3487  10
3488  7
3489  9
3490  8
3491  8
3492  11
3493  10
3494  10
3495  4
3496  9
3497  11
3498  10
3499  15
3500  15
3501  11
3502  13
3503  14
3504  13
3505  9
3506  17
3507  9
3508  7
3509  10
3510  13
3511  8
3512  7
3513  12
3514  9
3515  10
3516  6
3517  10
3518  13
3519  11
3520  12
3521  7
3522  13
3523  10
3524  11
3525  10
3526  10
3527  11
3528  14
3529  12
3530  10
3531  8
3532  11
3533  14
3534  17
3535  8
3536  3
3537  9
3538  7
3539  10
3540  13
3541  8
3542  4
3543  10
3544  6
3545  9
3546  9
3547  15
3548  6
3549  9
3550  12
3551  5
3552  12
3553  9
3554  13
3555  10
3556  9
3557  9
3558  3
3559  5
3560  11
3561  9
3562  4
3563  9
3564  16
3565  14
3566  11
3567  13
3568  11
3569  5
3570  11
3571  10
3572  9
3573  4
3574  13
3575  9
3576  9
3577  7
3578  10
3579  9
3580  9
3581  8
3582  9
3583  7
3584  10
3585  5
3586  15
3587  9
3588  7
3589  8
3590  2
3591  10
3592  8
3593  11
3594  10
3595  11
3596  12
3597  8
3598  11
3599  4
3600  7
3601  7
3602  8
3603  5
3604  7
3605  5
3606  7
3607  10
3608  6
3609  7
3610  10
3611  7
3612  6
3613  2
3614  7
3615  7
3616  7
3617  8
3618  4
3619  7
3620  5
3621  6
3622  3
3623  5
3624  5
3625  6
3626  9
3627  4
3628  9
3629  7
3630  7
3631  12
3632  7
3633  5
3634  8
3635  3
3636  10
3637  9
3638  10
3639  10
3640  9
3641  3
3642  3
3643  8
3644  9
3645  8
3646  14
3647  16
3648  10
3649  8
3650  21
3651  11
3652  15
3653  12
3654  21
3655  14
3656  21
3657  8
3658  14
3659  8
3660  13
3661  4
3662  10
3663  4
3664  7
3665  7
3666  5
3667  6
3668  9
3669  4
3670  4
3671  5
3672  4
3673  5
3674  5
3675  11
3676  6
3677  6
3678  3
3679  8
3680  4
3681  6
3682  8
3683  4
3684  6
3685  7
3686  6
3687  3
3688  7
3689  4
3690  7
3691  8
3692  5
3693  7
3694  8
3695  7
3696  5
3697  11
3698  7
3699  7
3700  7
3701  5
3702  7
3703  8
3704  5
3705  4
3706  4
3707  1
3708  7
3709  7
3710  13
3711  10
3712  9
3713  10
3714  9
3715  10
3716  4
3717  9
3718  13
3719  15
3720  2
3721  4
3722  4
3723  4
3724  5
3725  9
3726  7
3727  10
3728  7
3729  5
3730  11
3731  4
3732  9
3733  6
3734  7
3735  7
3736  6
3737  4
3738  10
3739  4
3740  5
3741  8
3742  6
3743  2
3744  4
3745  4
3746  3
3747  3
3748  2
3749  7
3750  3
3751  4
3752  5
3753  10
3754  10
3755  4
3756  4
3757  4
3758  8
3759  3
3760  6
3761  6
3762  6
3763  4
3764  3
3765  13
3766  4
3767  4
3768  6
3769  7
3770  2
3771  6
3772  2
3773  5
3774  7
3775  6
3776  4
3777  6
3778  1
3779  3
3780  4
3781  6
3782  4
3783  2
3784  4
3785  5
3786  6
3787  3
3788  7
3789  7
3790  3
3791  5
3792  4
3793  5
3794  4
3795  4
3796  2
3797  3
3798  3
3799  4
3800  4
3801  3
3802  3
3803  9
3804  6
3805  5
3806  7
3807  5
3808  5
3809  4
3810  4
3811  8
3812  4
3813  2
3814  8
3815  4
3816  8
3817  7
3818  7
3819  3
3820  5
3821  5
3822  4
3823  2
3824  1
3825  8
3826  2
3827  6
3828  3
3829  3
3830  5
3831  2
3832  5
3833  5
3834  6
3835  7
3836  9
3837  9
3838  8
3839  6
3840  10
3841  9
3842  8
3843  4
3844  4
3845  6
3846  6
3847  5
3848  2
3849  6
3850  5
3851  3
3852  5
3853  0
3854  3
3855  4
3856  7
3857  4
3858  4
3859  5
3860  2
3861  8
3862  3
3863  6
3864  1
3865  3
3866  4
3867  4
3868  3
3869  2
3870  0
3871  8
3872  4
3873  4
3874  3
3875  1
3876  4
3877  3
3878  3
3879  4
3880  5
3881  1
3882  1
3883  8
3884  5
3885  6
3886  2
3887  6
3888  1
3889  4
3890  1
3891  0
3892  2
3893  2
3894  2
3895  5
3896  5
3897  4
3898  6
3899  4
3900  3
3901  8
3902  4
3903  2
3904  3
3905  3
3906  4
3907  4
3908  3
3909  4
3910  9
3911  5
3912  12
3913  15
3914  9
3915  12
3916  18
3917  10
3918  23
3919  16
3920  7
3921  7
3922  8
3923  9
3924  3
3925  3
3926  1
3927  2
3928  1
3929  1
3930  1
3931  4
3932  6
3933  2
3934  4
3935  1
3936  3
3937  2
3938  2
3939  3
3940  3
3941  0
3942  2
3943  6
3944  0
3945  2
3946  3
3947  1
3948  0
3949  4
3950  3
3951  1
3952  0
3953  0
3954  2
3955  0
3956  4
3957  0
3958  3
3959  5
3960  6
3961  2
3962  2
3963  2
3964  2
3965  2
3966  2
3967  0
3968  0
3969  1
3970  2
3971  3
3972  1
3973  0
3974  2
3975  2
3976  3
3977  3
3978  1
3979  1
3980  4
3981  0
3982  6
3983  3
3984  3
3985  1
3986  0
3987  1
3988  3
3989  2
3990  2
3991  2
3992  4
3993  3
3994  2
3995  2
3996  2
3997  3
3998  3
3999  2
4000  4
4001  2
4002  5
4003  2
4004  1
4005  0
4006  0
4007  1
4008  4
4009  1
4010  2
4011  3
4012  0
4013  2
4014  2
4015  1
4016  1
4017  4
4018  3
4019  1
4020  2
4021  1
4022  3
4023  1
4024  1
4025  2
4026  3
4027  2
4028  1
4029  1
4030  2
4031  0
4032  2
4033  4
4034  1
4035  4
4036  6
4037  3
4038  1
4039  2
4040  1
4041  2
4042  3
4043  2
4044  0
4045  1
4046  0
4047  5
4048  2
4049  0
4050  4
4051  3
4052  3
4053  3
4054  3
4055  3
4056  1
4057  3
4058  2
4059  3
4060  0
4061  1
4062  2
4063  3
4064  1
4065  2
4066  2
4067  0
4068  2
4069  0
4070  4
4071  3
4072  1
4073  0
4074  0
4075  1
4076  2
4077  1
4078  2
4079  0
4080  2
4081  2
4082  0
4083  1
4084  4
4085  4
4086  3
4087  0
4088  2
4089  5
4090  3
4091  3
4092  0
4093  0
4094  1
4095  2
4096  0
4097  3
4098  3
4099  1
4100  2
4101  1
4102  4
4103  2
4104  0
4105  2
4106  2
4107  0
4108  0
4109  1
4110  3
4111  0
4112  0
4113  4
4114  2
4115  0
4116  1
4117  2
4118  2
4119  1
4120  1
4121  1
4122  0
4123  1
4124  1
4125  2
4126  0
4127  2
4128  1
4129  2
4130  2
4131  1
4132  1
4133  2
4134  1
4135  1
4136  2
4137  2
4138  1
4139  1
4140  1
4141  1
4142  2
4143  1
4144  4
4145  3
4146  2
4147  3
4148  3
4149  2
4150  0
4151  1
4152  4
4153  1
4154  5
4155  0
4156  1
4157  5
4158  0
4159  2
4160  4
4161  1
4162  3
4163  2
4164  1
4165  1
4166  0
4167  0
4168  1
4169  0
4170  2
4171  1
4172  1
4173  1
4174  0
4175  0
4176  0
4177  0
4178  2
4179  0
4180  1
4181  1
4182  1
4183  0
4184  2
4185  0
4186  1
4187  4
4188  3
4189  1
4190  1
4191  0
4192  3
4193  1
4194  0
4195  0
4196  0
4197  2
4198  0
4199  1
4200  0
4201  2
4202  1
4203  0
4204  1
4205  4
4206  1
4207  3
4208  1
4209  1
4210  0
4211  2
4212  1
4213  2
4214  2
4215  3
4216  0
4217  0
4218  1
4219  0
4220  0
4221  6
4222  2
4223  2
4224  2
4225  4
4226  1
4227  4
4228  1
4229  2
4230  2
4231  2
4232  5
4233  5
4234  3
4235  6
4236  6
4237  15
4238  20
4239  26
4240  37
4241  53
4242  68
4243  103
4244  112
4245  128
4246  154
4247  177
4248  158
4249  158
4250  131
4251  120
4252  78
4253  42
4254  41
4255  27
4256  14
4257  8
4258  5
4259  4
4260  3
4261  6
4262  5
4263  3
4264  1
4265  2
4266  4
4267  4
4268  4
4269  3
4270  3
4271  2
4272  0
4273  1
4274  0
4275  2
4276  1
4277  0
4278  0
4279  1
4280  0
4281  3
4282  2
4283  2
4284  2
4285  1
4286  1
4287  1
4288  2
4289  1
4290  0
4291  1
4292  0
4293  2
4294  2
4295  1
4296  1
4297  0
4298  3
4299  1
4300  2
4301  1
4302  2
4303  2
4304  0
4305  0
4306  1
4307  0
4308  1
4309  2
4310  0
4311  1
4312  2
4313  1
4314  2
4315  1
4316  4
4317  0
4318  0
4319  0
4320  1
4321  1
4322  2
4323  1
4324  1
4325  0
4326  1
4327  0
4328  3
4329  1
4330  1
4331  0
4332  1
4333  1
4334  1
4335  0
4336  0
4337  1
4338  0
4339  0
4340  1
4341  1
4342  0
4343  0
4344  1
4345  2
4346  1
4347  0
4348  1
4349  2
4350  1
4351  0
4352  1
4353  0
4354  0
4355  0
4356  2
4357  0
4358  1
4359  0
4360  2
4361  1
4362  0
4363  1
4364  2
4365  1
4366  1
4367  0
4368  0
4369  0
4370  1
4371  1
4372  0
4373  0
4374  0
4375  1
4376  1
4377  1
4378  2
4379  1
4380  1
4381  0
4382  1
4383  2
4384  0
4385  1
4386  2
4387  1
4388  1
4389  0
4390  0
4391  1
4392  2
4393  2
4394  1
4395  4
4396  3
4397  3
4398  5
4399  2
4400  7
4401  8
4402  11
4403  9
4404  14
4405  5
4406  18
4407  15
4408  27
4409  28
4410  24
4411  22
4412  17
4413  14
4414  7
4415  4
4416  5
4417  7
4418  2
4419  4
4420  2
4421  1
4422  1
4423  0
4424  0
4425  1
4426  0
4427  1
4428  0
4429  1
4430  0
4431  0
4432  0
4433  0
4434  0
4435  0
4436  0
4437  0
4438  0
4439  0
4440  1
4441  0
4442  1
4443  0
4444  1
4445  0
4446  0
4447  1
4448  0
4449  1
4450  0
4451  0
4452  0
4453  0
4454  1
4455  1
4456  1
4457  1
4458  0
4459  0
4460  1
4461  0
4462  1
4463  0
4464  0
4465  0
4466  1
4467  0
4468  1
4469  0
4470  0
4471  0
4472  1
4473  1
4474  1
4475  0
4476  0
4477  1
4478  1
4479  0
4480  0
4481  0
4482  1
4483  0
4484  0
4485  1
4486  2
4487  2
4488  1
4489  1
4490  2
4491  0
4492  1
4493  0
4494  1
4495  0
4496  0
4497  1
4498  0
4499  2
4500  0
4501  0
4502  0
4503  0
4504  0
4505  0
4506  0
4507  2
4508  0
4509  2
4510  1
4511  0
4512  1
4513  1
4514  0
4515  0
4516  0
4517  2
4518  0
4519  1
4520  0
4521  0
4522  1
4523  0
4524  1
4525  2
4526  0
4527  0
4528  0
4529  1
4530  0
4531  0
4532  0
4533  0
4534  0
4535  0
4536  0
4537  0
4538  1
4539  0
4540  0
4541  1
4542  0
4543  0
4544  0
4545  1
4546  0
4547  0
4548  2
4549  0
4550  1
4551  1
4552  0
4553  1
4554  1
4555  0
4556  0
4557  0
4558  1
4559  2
4560  0
4561  1
4562  1
4563  0
4564  0
4565  0
4566  1
4567  2
4568  1
4569  1
4570  0
4571  0
4572  2
4573  1
4574  0
4575  0
4576  0
4577  0
4578  3
4579  0
4580  0
4581  1
4582  0
4583  0
4584  0
4585  1
4586  0
4587  0
4588  0
4589  1
4590  0
4591  0
4592  0
4593  1
4594  1
4595  0
4596  0
4597  0
4598  0
4599  1
4600  1
4601  0
4602  1
4603  1
4604  0
4605  1
4606  1
4607  1
4608  2
4609  1
4610  2
4611  4
4612  4
4613  4
4614  3
4615  8
4616  4
4617  5
4618  2
4619  5
4620  6
4621  4
4622  5
4623  2
4624  1
4625  0
4626  3
4627  1
4628  1
4629  0
4630  0
4631  1
4632  0
4633  0
4634  0
4635  0
4636  1
4637  1
4638  1
4639  0
4640  1
4641  0
4642  0
4643  0
4644  0
4645  0
4646  0
4647  1
4648  0
4649  0
4650  1
4651  0
4652  0
4653  0
4654  0
4655  1
4656  0
4657  0
4658  0
4659  2
4660  1
4661  0
4662  0
4663  2
4664  0
4665  0
4666  0
4667  0
4668  0
4669  0
4670  1
4671  1
4672  0
4673  0
4674  0
4675  0
4676  0
4677  0
4678  0
4679  0
4680  1
4681  0
4682  0
4683  1
4684  0
4685  0
4686  0
4687  0
4688  0
4689  2
4690  1
4691  0
4692  0
4693  0
4694  2
4695  0
4696  0
4697  1
4698  0
4699  2
4700  1
4701  0
4702  0
4703  1
4704  0
4705  0
4706  0
4707  0
4708  1
4709  2
4710  1
4711  0
4712  1
4713  0
4714  0
4715  0
4716  0
4717  0
4718  0
4719  0
4720  1
4721  0
4722  0
4723  1
4724  1
4725  0
4726  0
4727  0
4728  0
4729  0
4730  0
4731  0
4732  0
4733  0
4734  0
4735  0
4736  1
4737  1
4738  0
4739  0
4740  1
4741  1
4742  0
4743  0
4744  1
4745  0
4746  0
4747  0
4748  0
4749  0
4750  0
4751  0
4752  1
4753  0
4754  0
4755  0
4756  0
4757  0
4758  0
4759  0
4760  0
4761  0
4762  0
4763  0
4764  0
4765  0
4766  2
4767  0
4768  0
4769  0
4770  0
4771  0
4772  1
4773  0
4774  0
4775  0
4776  1
4777  0
4778  0
4779  0
4780  2
4781  0
4782  0
4783  0
4784  0
4785  0
4786  0
4787  0
4788  0
4789  1
4790  0
4791  0
4792  0
4793  2
4794  0
4795  1
4796  1
4797  0
4798  1
4799  2
4800  1
4801  2
4802  1
4803  0
4804  0
4805  0
4806  0
4807  1
4808  2
4809  1
4810  0
4811  0
4812  0
4813  1
4814  0
4815  2
4816  1
4817  0
4818  1
4819  4
4820  1
4821  0
4822  0
4823  1
4824  0
4825  1
4826  2
4827  0
4828  3
4829  0
4830  0
4831  2
4832  1
4833  2
4834  0
4835  0
4836  1
4837  1
4838  0
4839  0
4840  0
4841  0
4842  0
4843  0
4844  1
4845  0
4846  0
4847  0
4848  0
4849  0
4850  0
4851  0
4852  0
4853  0
4854  0
4855  0
4856  0
4857  1
4858  0
4859  1
4860  0
4861  0
4862  0
4863  0
4864  1
4865  0
4866  0
4867  1
4868  1
4869  0
4870  0
4871  0
4872  0
4873  0
4874  1
4875  0
4876  0
4877  0
4878  0
4879  0
4880  1
4881  0
4882  0
4883  0
4884  0
4885  0
4886  0
4887  0
4888  0
4889  0
4890  1
4891  1
4892  1
4893  0
4894  1
4895  0
4896  2
4897  0
4898  0
4899  0
4900  1
4901  0
4902  0
4903  0
4904  0
4905  0
4906  0
4907  1
4908  0
4909  0
4910  0
4911  1
4912  0
4913  0
4914  0
4915  1
4916  0
4917  0
4918  1
4919  0
4920  0
4921  2
4922  0
4923  0
4924  2
4925  0
4926  0
4927  1
4928  0
4929  0
4930  1
4931  1
4932  0
4933  0
4934  0
4935  0
4936  1
4937  0
4938  0
4939  1
4940  1
4941  0
4942  0
4943  0
4944  1
4945  0
4946  0
4947  1
4948  0
4949  0
4950  0
4951  1
4952  1
4953  0
4954  0
4955  0
4956  0
4957  0
4958  2
4959  0
4960  0
4961  0
4962  0
4963  0
4964  2
4965  0
4966  0
4967  0
4968  0
4969  0
4970  0
4971  1
4972  1
4973  1
4974  2
4975  0
4976  0
4977  0
4978  0
4979  0
4980  0
4981  0
4982  0
4983  0
4984  0
4985  0
4986  0
4987  0
4988  1
4989  1
4990  1
4991  2
4992  0
4993  0
4994  0
4995  0
4996  0
4997  0
4998  0
4999  0
5000  0
5001  0
5002  1
5003  0
5004  1
5005  0
5006  1
5007  0
5008  0
5009  1
5010  0
5011  1
5012  0
5013  0
5014  0
5015  0
5016  0
5017  1
5018  0
5019  0
5020  1
5021  0
5022  0
5023  1
5024  0
5025  0
5026  1
5027  0
5028  0
5029  1
5030  2
5031  0
5032  0
5033  0
5034  0
5035  1
5036  2
5037  0
5038  0
5039  0
5040  0
5041  0
5042  0
5043  0
5044  1
5045  0
5046  0
5047  0
5048  0
5049  0
5050  0
5051  0
5052  0
5053  0
5054  0
5055  0
5056  0
5057  0
5058  1
5059  0
5060  0
5061  0
5062  0
5063  0
5064  0
5065  0
5066  1
5067  1
5068  0
5069  0
5070  0
5071  0
5072  0
5073  0
5074  0
5075  0
5076  1
5077  0
5078  0
5079  0
5080  0
5081  0
5082  1
5083  0
5084  0
5085  0
5086  0
5087  0
5088  0
5089  1
5090  0
5091  0
5092  0
5093  0
5094  0
5095  0
5096  1
5097  1
5098  0
5099  1
5100  0
5101  0
5102  0
5103  0
5104  0
5105  0
5106  0
5107  0
5108  0
5109  0
5110  0
5111  0
5112  0
5113  0
5114  0
5115  0
5116  0
5117  0
5118  0
5119  0
5120  0
5121  1
5122  0
5123  0
5124  0
5125  1
5126  1
5127  1
5128  0
5129  0
5130  0
5131  0
5132  0
5133  0
5134  0
5135  0
5136  1
5137  0
5138  0
5139  0
5140  0
5141  0
5142  0
5143  0
5144  0
5145  0
5146  0
5147  0
5148  0
5149  0
5150  0
5151  0
5152  1
5153  1
5154  0
5155  0
5156  0
5157  0
5158  0
5159  1
5160  0
5161  0
5162  2
5163  1
5164  0
5165  0
5166  0
5167  0
5168  0
5169  0
5170  0
5171  0
5172  0
5173  0
5174  0
5175  0
5176  0
5177  0
5178  0
5179  0
5180  0
5181  0
5182  0
5183  2
5184  0
5185  1
5186  0
5187  0
5188  0
5189  0
5190  0
5191  0
5192  0
5193  0
5194  1
5195  1
5196  0
5197  0
5198  0
5199  0
5200  0
5201  1
5202  0
5203  0
5204  0
5205  0
5206  1
5207  0
5208  1
5209  1
5210  1
5211  0
5212  0
5213  0
5214  0
5215  2
5216  0
5217  0
5218  0
5219  0
5220  0
5221  0
5222  1
5223  0
5224  0
5225  0
5226  1
5227  0
5228  0
5229  1
5230  0
5231  0
5232  1
5233  1
5234  1
5235  0
5236  0
5237  0
5238  0
5239  0
5240  0
5241  0
5242  0
5243  0
5244  1
5245  0
5246  0
5247  1
5248  0
5249  0
5250  1
5251  0
5252  1
5253  0
5254  0
5255  0
5256  0
5257  0
5258  1
5259  0
5260  0
5261  1
5262  0
5263  0
5264  1
5265  1
5266  0
5267  0
5268  0
5269  0
5270  0
5271  0
5272  0
5273  0
5274  1
5275  0
5276  0
5277  0
5278  0
5279  0
5280  0
5281  0
5282  0
5283  0
5284  0
5285  0
5286  1
5287  1
5288  0
5289  1
5290  1
5291  0
5292  0
5293  0
5294  0
5295  1
5296  0
5297  0
5298  1
5299  1
5300  0
5301  0
5302  0
5303  1
5304  0
5305  0
5306  0
5307  0
5308  2
5309  0
5310  0
5311  0
5312  2
5313  0
5314  0
5315  0
5316  0
5317  0
5318  1
5319  0
5320  0
5321  0
5322  1
5323  0
5324  0
5325  0
5326  1
5327  1
5328  1
5329  1
5330  4
5331  1
5332  2
5333  2
5334  2
5335  1
5336  2
5337  2
5338  0
5339  3
5340  3
5341  3
5342  1
5343  1
5344  0
5345  0
5346  1
5347  0
5348  0
5349  0
5350  3
5351  0
5352  0
5353  0
5354  0
5355  0
5356  0
5357  0
5358  0
5359  0
5360  0
5361  0
5362  0
5363  0
5364  0
5365  0
5366  0
5367  0
5368  0
5369  0
5370  0
5371  0
5372  1
5373  0
5374  0
5375  0
5376  0
5377  0
5378  0
5379  0
5380  0
5381  0
5382  0
5383  0
5384  0
5385  0
5386  0
5387  0
5388  0
5389  0
5390  0
5391  0
5392  0
5393  1
5394  0
5395  0
5396  0
5397  0
5398  0
5399  0
5400  0
5401  0
5402  0
5403  0
5404  0
5405  0
5406  0
5407  1
5408  0
5409  0
5410  1
5411  0
5412  0
5413  1
5414  2
5415  0
5416  0
5417  0
5418  0
5419  0
5420  0
5421  0
5422  0
5423  0
5424  0
5425  0
5426  0
5427  0
5428  1
5429  1
5430  0
5431  0
5432  0
5433  0
5434  0
5435  0
5436  1
5437  0
5438  0
5439  0
5440  0
5441  0
5442  0
5443  0
5444  1
5445  0
5446  0
5447  1
5448  0
5449  0
5450  0
5451  0
5452  0
5453  0
5454  0
5455  0
5456  0
5457  0
5458  0
5459  0
5460  0
5461  0
5462  1
5463  1
5464  0
5465  1
5466  0
5467  0
5468  1
5469  0
5470  0
5471  0
5472  0
5473  0
5474  2
5475  1
5476  1
5477  0
5478  0
5479  0
5480  0
5481  0
5482  1
5483  0
5484  1
5485  1
5486  0
5487  0
5488  0
5489  0
5490  0
5491  0
5492  0
5493  0
5494  0
5495  0
5496  0
5497  0
5498  0
5499  0
5500  0
5501  0
5502  0
5503  0
5504  0
5505  0
5506  0
5507  0
5508  0
5509  2
5510  0
5511  0
5512  0
5513  0
5514  0
5515  0
5516  1
5517  0
5518  1
5519  0
5520  0
5521  0
5522  0
5523  0
5524  0
5525  1
5526  0
5527  1
5528  0
5529  0
5530  0
5531  1
5532  0
5533  0
5534  1
5535  1
5536  0
5537  0
5538  0
5539  0
5540  0
5541  0
5542  0
5543  0
5544  0
5545  0
5546  0
5547  0
5548  0
5549  1
5550  0
5551  0
5552  0
5553  0
5554  0
5555  0
5556  1
5557  0
5558  0
5559  0
5560  0
5561  0
5562  0
5563  0
5564  0
5565  0
5566  0
5567  1
5568  0
5569  1
5570  0
5571  0
5572  0
5573  0
5574  0
5575  1
5576  0
5577  0
5578  0
5579  0
5580  0
5581  0
5582  1
5583  2
5584  0
5585  0
5586  0
5587  0
5588  0
5589  1
5590  0
5591  1
5592  1
5593  0
5594  0
5595  0
5596  0
5597  1
5598  1
5599  1
5600  0
5601  0
5602  0
5603  0
5604  0
5605  0
5606  0
5607  0
5608  1
5609  0
5610  0
5611  0
5612  0
5613  0
5614  0
5615  1
5616  0
5617  0
5618  1
5619  0
5620  0
5621  0
5622  0
5623  0
5624  0
5625  0
5626  0
5627  0
5628  0
5629  0
5630  0
5631  0
5632  0
5633  0
5634  0
5635  0
5636  0
5637  0
5638  0
5639  1
5640  0
5641  0
5642  0
5643  0
5644  2
5645  0
5646  0
5647  0
5648  0
5649  0
5650  1
5651  0
5652  1
5653  0
5654  1
5655  1
5656  2
5657  0
5658  0
5659  1
5660  1
5661  0
5662  1
5663  0
5664  0
5665  0
5666  1
5667  0
5668  0
5669  2
5670  0
5671  0
5672  0
5673  0
5674  0
5675  0
5676  0
5677  1
5678  0
5679  0
5680  1
5681  0
5682  0
5683  0
5684  1
5685  0
5686  1
5687  1
5688  0
5689  0
5690  0
5691  2
5692  1
5693  0
5694  0
5695  0
5696  1
5697  0
5698  0
5699  0
5700  0
5701  0
5702  0
5703  0
5704  1
5705  0
5706  0
5707  0
5708  0
5709  0
5710  0
5711  1
5712  1
5713  0
5714  0
5715  0
5716  0
5717  0
5718  0
5719  0
5720  0
5721  0
5722  1
5723  0
5724  0
5725  0
5726  0
5727  0
5728  0
5729  0
5730  0
5731  0
5732  0
5733  1
5734  0
5735  0
5736  0
5737  0
5738  0
5739  1
5740  0
5741  0
5742  0
5743  1
5744  0
5745  0
5746  0
5747  0
5748  0
5749  1
5750  1
5751  0
5752  0
5753  0
5754  0
5755  0
5756  0
5757  0
5758  1
5759  0
5760  0
5761  0
5762  0
5763  0
5764  0
5765  0
5766  0
5767  0
5768  1
5769  0
5770  1
5771  0
5772  0
5773  0
5774  0
5775  0
5776  0
5777  0
5778  0
5779  0
5780  0
5781  0
5782  0
5783  0
5784  0
5785  0
5786  1
5787  0
5788  0
5789  0
5790  0
5791  1
5792  0
5793  0
5794  0
5795  0
5796  0
5797  0
5798  0
5799  0
5800  0
5801  0
5802  0
5803  2
5804  0
5805  0
5806  0
5807  0
5808  0
5809  0
5810  1
5811  0
5812  0
5813  1
5814  0
5815  0
5816  0
5817  0
5818  0
5819  0
5820  1
5821  0
5822  0
5823  0
5824  0
5825  0
5826  0
5827  0
5828  0
5829  0
5830  0
5831  1
5832  0
5833  0
5834  0
5835  0
5836  1
5837  0
5838  1
5839  0
5840  0
5841  0
5842  1
5843  0
5844  1
5845  0
5846  0
5847  0
5848  0
5849  1
5850  0
5851  1
5852  0
5853  0
5854  0
5855  0
5856  1
5857  0
5858  0
5859  1
5860  0
5861  1
5862  0
5863  0
5864  0
5865  0
5866  0
5867  0
5868  0
5869  0
5870  2
5871  0
5872  0
5873  0
5874  0
5875  0
5876  0
5877  0
5878  2
5879  0
5880  0
5881  0
5882  0
5883  0
5884  0
5885  1
5886  0
5887  0
5888  0
5889  0
5890  0
5891  0
5892  0
5893  0
5894  0
5895  0
5896  2
5897  1
5898  0
5899  1
5900  0
5901  0
5902  0
5903  1
5904  1
5905  0
5906  0
5907  0
5908  0
5909  1
5910  0
5911  0
5912  0
5913  0
5914  1
5915  0
5916  0
5917  0
5918  0
5919  0
5920  0
5921  0
5922  0
5923  0
5924  1
5925  0
5926  0
5927  0
5928  0
5929  0
5930  0
5931  0
5932  0
5933  0
5934  0
5935  0
5936  0
5937  0
5938  2
5939  0
5940  0
5941  0
5942  1
5943  0
5944  0
5945  0
5946  0
5947  1
5948  0
5949  0
5950  0
5951  0
5952  0
5953  0
5954  0
5955  0
5956  0
5957  0
5958  1
5959  0
5960  1
5961  0
5962  0
5963  0
5964  1
5965  0
5966  0
5967  1
5968  0
5969  0
5970  0
5971  0
5972  0
5973  0
5974  0
5975  0
5976  1
5977  1
5978  1
5979  0
5980  0
5981  1
5982  1
5983  0
5984  0
5985  0
5986  0
5987  0
5988  0
5989  0
5990  0
5991  0
5992  1
5993  0
5994  0
5995  0
5996  1
5997  0
5998  0
5999  0
6000  0
6001  0
6002  0
6003  0
6004  0
6005  1
6006  0
6007  0
6008  0
6009  1
6010  0
6011  0
6012  0
6013  0
6014  0
6015  1
6016  0
6017  0
6018  0
6019  0
6020  0
6021  0
6022  0
6023  0
6024  1
6025  0
6026  0
6027  0
6028  0
6029  0
6030  0
6031  0
6032  1
6033  1
6034  1
6035  0
6036  0
6037  0
6038  0
6039  0
6040  0
6041  0
6042  0
6043  0
6044  0
6045  1
6046  0
6047  0
6048  0
6049  0
6050  0
6051  0
6052  0
6053  0
6054  0
6055  1
6056  0
6057  0
6058  0
6059  0
6060  1
6061  0
6062  1
6063  0
6064  0
6065  0
6066  0
6067  1
6068  0
6069  0
6070  0
6071  0
6072  1
6073  0
6074  0
6075  0
6076  0
6077  0
6078  0
6079  0
6080  0
6081  1
6082  0
6083  0
6084  0
6085  0
6086  0
6087  1
6088  0
6089  1
6090  0
6091  0
6092  0
6093  0
6094  0
6095  0
6096  1
6097  0
6098  0
6099  0
6100  0
6101  1
6102  0
6103  0
6104  0
6105  0
6106  0
6107  0
6108  0
6109  0
6110  0
6111  0
6112  0
6113  0
6114  0
6115  0
6116  0
6117  0
6118  1
6119  1
6120  0
6121  0
6122  0
6123  0
6124  0
6125  0
6126  1
6127  0
6128  0
6129  0
6130  0
6131  0
6132  0
6133  0
6134  0
6135  0
6136  1
6137  0
6138  0
6139  0
6140  0
6141  0
6142  0
6143  0
6144  0
6145  0
6146  0
6147  0
6148  0
6149  0
6150  0
6151  0
6152  0
6153  0
6154  0
6155  0
6156  0
6157  0
6158  0
6159  0
6160  0
6161  0
6162  1
6163  0
6164  0
6165  0
6166  0
6167  0
6168  0
6169  0
6170  0
6171  0
6172  0
6173  1
6174  0
6175  1
6176  0
6177  0
6178  0
6179  0
6180  0
6181  1
6182  0
6183  0
6184  0
6185  0
6186  1
6187  0
6188  0
6189  0
6190  0
6191  0
6192  0
6193  0
6194  0
6195  0
6196  0
6197  0
6198  0
6199  2
6200  0
6201  0
6202  0
6203  1
6204  0
6205  0
6206  0
6207  1
6208  0
6209  0
6210  0
6211  0
6212  0
6213  0
6214  0
6215  0
6216  0
6217  0
6218  0
6219  0
6220  0
6221  0
6222  2
6223  0
6224  0
6225  0
6226  0
6227  0
6228  0
6229  0
6230  0
6231  0
6232  0
6233  0
6234  0
6235  1
6236  0
6237  0
6238  0
6239  0
6240  0
6241  0
6242  0
6243  1
6244  1
6245  0
6246  1
6247  0
6248  0
6249  0
6250  0
6251  1
6252  0
6253  0
6254  0
6255  0
6256  0
6257  0
6258  0
6259  1
6260  0
6261  0
6262  0
6263  0
6264  0
6265  0
6266  0
6267  0
6268  0
6269  0
6270  0
6271  0
6272  0
6273  0
6274  0
6275  0
6276  0
6277  0
6278  0
6279  0
6280  2
6281  0
6282  0
6283  0
6284  1
6285  0
6286  0
6287  0
6288  0
6289  0
6290  0
6291  0
6292  0
6293  1
6294  0
6295  0
6296  0
6297  0
6298  0
6299  0
6300  0
6301  0
6302  0
6303  0
6304  0
6305  0
6306  0
6307  0
6308  1
6309  1
6310  0
6311  0
6312  0
6313  0
6314  0
6315  0
6316  0
6317  0
6318  0
6319  0
6320  0
6321  0
6322  0
6323  0
6324  0
6325  0
6326  0
6327  0
6328  0
6329  0
6330  0
6331  0
6332  0
6333  0
6334  0
6335  0
6336  0
6337  0
6338  0
6339  0
6340  2
6341  0
6342  0
6343  0
6344  0
6345  0
6346  0
6347  0
6348  0
6349  0
6350  0
6351  0
6352  0
6353  0
6354  0
6355  0
6356  0
6357  0
6358  0
6359  0
6360  0
6361  1
6362  0
6363  0
6364  0
6365  0
6366  1
6367  2
6368  0
6369  0
6370  2
6371  0
6372  2
6373  0
6374  0
6375  0
6376  0
6377  1
6378  0
6379  0
6380  0
6381  0
6382  0
6383  0
6384  0
6385  1
6386  0
6387  1
6388  0
6389  0
6390  0
6391  0
6392  0
6393  0
6394  0
6395  0
6396  0
6397  0
6398  0
6399  0
6400  0
6401  0
6402  0
6403  0
6404  0
6405  0
6406  0
6407  1
6408  0
6409  0
6410  0
6411  0
6412  0
6413  0
6414  0
6415  0
6416  0
6417  1
6418  0
6419  0
6420  0
6421  0
6422  0
6423  0
6424  0
6425  1
6426  0
6427  0
6428  0
6429  0
6430  0
6431  1
6432  0
6433  0
6434  1
6435  0
6436  0
6437  1
6438  0
6439  0
6440  0
6441  0
6442  0
6443  0
6444  0
6445  0
6446  0
6447  0
6448  0
6449  0
6450  0
6451  0
6452  0
6453  0
6454  0
6455  0
6456  0
6457  0
6458  0
6459  0
6460  1
6461  1
6462  0
6463  0
6464  0
6465  0
6466  0
6467  0
6468  0
6469  0
6470  2
6471  0
6472  0
6473  0
6474  1
6475  0
6476  0
6477  1
6478  0
6479  0
6480  0
6481  0
6482  0
6483  0
6484  0
6485  0
6486  0
6487  0
6488  0
6489  2
6490  0
6491  0
6492  0
6493  0
6494  0
6495  0
6496  0
6497  0
6498  0
6499  0
6500  0
6501  0
6502  0
6503  1
6504  0
6505  1
6506  0
6507  0
6508  0
6509  0
6510  0
6511  0
6512  0
6513  0
6514  0
6515  0
6516  0
6517  1
6518  0
6519  0
6520  0
6521  0
6522  0
6523  0
6524  0
6525  0
6526  0
6527  0
6528  1
6529  0
6530  0
6531  0
6532  0
6533  1
6534  0
6535  0
6536  0
6537  0
6538  0
6539  0
6540  0
6541  0
6542  1
6543  0
6544  0
6545  0
6546  0
6547  0
6548  1
6549  1
6550  0
6551  0
6552  0
6553  0
6554  0
6555  0
6556  0
6557  0
6558  0
6559  0
6560  0
6561  0
6562  0
6563  0
6564  0
6565  0
6566  0
6567  0
6568  0
6569  0
6570  0
6571  0
6572  0
6573  0
6574  1
6575  0
6576  0
6577  0
6578  0
6579  0
6580  0
6581  0
6582  0
6583  0
6584  0
6585  0
6586  0
6587  0
6588  0
6589  0
6590  0
6591  0
6592  0
6593  0
6594  0
6595  0
6596  0
6597  0
6598  0
6599  0
6600  0
6601  1
6602  0
6603  0
6604  0
6605  0
6606  0
6607  0
6608  0
6609  0
6610  1
6611  1
6612  0
6613  0
6614  0
6615  0
6616  0
6617  0
6618  0
6619  0
6620  0
6621  0
6622  0
6623  0
6624  0
6625  0
6626  0
6627  0
6628  0
6629  1
6630  0
6631  2
6632  0
6633  0
6634  1
6635  0
6636  1
6637  0
6638  0
6639  0
6640  0
6641  0
6642  0
6643  0
6644  0
6645  1
6646  0
6647  0
6648  0
6649  0
6650  0
6651  0
6652  0
6653  1
6654  1
6655  0
6656  0
6657  1
6658  0
6659  0
6660  0
6661  0
6662  2
6663  0
6664  0
6665  0
6666  0
6667  0
6668  1
6669  2
6670  0
6671  1
6672  0
6673  0
6674  0
6675  0
6676  0
6677  0
6678  1
6679  1
6680  0
6681  0
6682  0
6683  0
6684  0
6685  0
6686  2
6687  0
6688  0
6689  0
6690  0
6691  0
6692  0
6693  1
6694  0
6695  0
6696  0
6697  0
6698  1
6699  1
6700  0
6701  0
6702  0
6703  0
6704  0
6705  0
6706  0
6707  0
6708  1
6709  0
6710  0
6711  1
6712  0
6713  0
6714  0
6715  0
6716  0
6717  0
6718  0
6719  1
6720  1
6721  0
6722  0
6723  0
6724  0
6725  0
6726  0
6727  0
6728  0
6729  0
6730  0
6731  0
6732  0
6733  1
6734  0
6735  0
6736  1
6737  0
6738  0
6739  0
6740  0
6741  0
6742  1
6743  0
6744  1
6745  1
6746  1
6747  0
6748  0
6749  1
6750  0
6751  0
6752  0
6753  0
6754  0
6755  0
6756  0
6757  0
6758  0
6759  2
6760  0
6761  1
6762  0
6763  0
6764  1
6765  0
6766  1
6767  0
6768  0
6769  0
6770  0
6771  0
6772  0
6773  0
6774  0
6775  0
6776  1
6777  0
6778  0
6779  0
6780  0
6781  0
6782  0
6783  0
6784  0
6785  0
6786  0
6787  0
6788  0
6789  0
6790  0
6791  1
6792  0
6793  0
6794  0
6795  0
6796  0
6797  0
6798  0
6799  0
6800  0
6801  0
6802  0
6803  0
6804  0
6805  0
6806  0
6807  0
6808  0
6809  0
6810  0
6811  0
6812  0
6813  0
6814  1
6815  0
6816  0
6817  0
6818  0
6819  0
6820  0
6821  1
6822  0
6823  0
6824  0
6825  0
6826  0
6827  0
6828  0
6829  1
6830  0
6831  0
6832  0
6833  0
6834  0
6835  0
6836  0
6837  1
6838  0
6839  0
6840  0
6841  0
6842  0
6843  0
6844  1
6845  0
6846  0
6847  0
6848  0
6849  0
6850  0
6851  0
6852  0
6853  0
6854  0
6855  0
6856  1
6857  0
6858  0
6859  1
6860  0
6861  0
6862  1
6863  0
6864  2
6865  0
6866  0
6867  0
6868  0
6869  0
6870  0
6871  1
6872  0
6873  0
6874  1
6875  0
6876  0
6877  0
6878  0
6879  1
6880  0
6881  0
6882  0
6883  0
6884  0
6885  1
6886  0
6887  0
6888  0
6889  0
6890  0
6891  1
6892  0
6893  0
6894  1
6895  0
6896  0
6897  0
6898  0
6899  0
6900  0
6901  0
6902  0
6903  0
6904  0
6905  0
6906  0
6907  0
6908  0
6909  1
6910  1
6911  0
6912  0
6913  0
6914  0
6915  0
6916  0
6917  0
6918  0
6919  0
6920  0
6921  0
6922  0
6923  1
6924  0
6925  0
6926  0
6927  0
6928  0
6929  0
6930  0
6931  0
6932  0
6933  0
6934  0
6935  0
6936  1
6937  0
6938  0
6939  1
6940  0
6941  0
6942  0
6943  0
6944  0
6945  0
6946  0
6947  0
6948  1
6949  0
6950  0
6951  0
6952  0
6953  0
6954  1
6955  0
6956  0
6957  0
6958  0
6959  0
6960  0
6961  0
6962  0
6963  0
6964  0
6965  0
6966  0
6967  0
6968  0
6969  1
6970  0
6971  0
6972  0
6973  0
6974  0
6975  0
6976  0
6977  0
6978  0
6979  0
6980  0
6981  0
6982  0
6983  0
6984  0
6985  0
6986  1
6987  0
6988  0
6989  0
6990  0
6991  0
6992  0
6993  0
6994  0
6995  1
6996  1
6997  0
6998  0
6999  0
7000  0
7001  0
7002  1
7003  0
7004  0
7005  0
7006  1
7007  0
7008  0
7009  0
7010  0
7011  0
7012  0
7013  0
7014  0
7015  0
7016  0
7017  0
7018  0
7019  0
7020  0
7021  0
7022  0
7023  0
7024  0
7025  1
7026  0
7027  0
7028  0
7029  0
7030  0
7031  0
7032  0
7033  0
7034  0
7035  0
7036  2
7037  0
7038  0
7039  0
7040  0
7041  0
7042  0
7043  0
7044  0
7045  0
7046  0
7047  0
7048  0
7049  0
7050  0
7051  1
7052  0
7053  0
7054  0
7055  0
7056  0
7057  3
7058  0
7059  0
7060  0
7061  0
7062  0
7063  0
7064  0
7065  1
7066  0
7067  1
7068  1
7069  0
7070  0
7071  0
7072  0
7073  1
7074  0
7075  0
7076  0
7077  0
7078  0
7079  0
7080  0
7081  0
7082  1
7083  0
7084  0
7085  0
7086  0
7087  0
7088  0
7089  0
7090  0
7091  0
7092  0
7093  0
7094  1
7095  0
7096  0
7097  0
7098  1
7099  0
7100  0
7101  0
7102  0
7103  1
7104  0
7105  1
7106  0
7107  0
7108  1
7109  0
7110  0
7111  0
7112  1
7113  0
7114  0
7115  0
7116  0
7117  1
7118  0
7119  0
7120  0
7121  0
7122  0
7123  1
7124  0
7125  0
7126  0
7127  1
7128  0
7129  0
7130  0
7131  0
7132  0
7133  0
7134  0
7135  0
7136  0
7137  1
7138  0
7139  1
7140  0
7141  0
7142  0
7143  0
7144  0
7145  0
7146  0
7147  0
7148  0
7149  0
7150  0
7151  0
7152  0
7153  1
7154  1
7155  0
7156  2
7157  0
7158  0
7159  0
7160  0
7161  0
7162  0
7163  0
7164  0
7165  0
7166  0
7167  0
7168  1
7169  0
7170  0
7171  0
7172  0
7173  0
7174  0
7175  0
7176  0
7177  0
7178  1
7179  0
7180  0
7181  0
7182  0
7183  1
7184  0
7185  1
7186  0
7187  0
7188  2
7189  0
7190  0
7191  0
7192  0
7193  0
7194  1
7195  0
7196  0
7197  1
7198  0
7199  0
7200  0
7201  1
7202  0
7203  0
7204  0
7205  0
7206  0
7207  0
7208  0
7209  0
7210  0
7211  0
7212  0
7213  0
7214  0
7215  0
7216  0
7217  0
7218  0
7219  0
7220  0
7221  0
7222  1
7223  1
7224  0
7225  0
7226  0
7227  0
7228  0
7229  0
7230  1
7231  0
7232  0
7233  1
7234  0
7235  0
7236  0
7237  0
7238  0
7239  0
7240  0
7241  0
7242  0
7243  0
7244  0
7245  0
7246  0
7247  0
7248  1
7249  0
7250  0
7251  0
7252  0
7253  0
7254  0
7255  0
7256  0
7257  0
7258  0
7259  0
7260  0
7261  0
7262  0
7263  0
7264  0
7265  0
7266  0
7267  0
7268  0
7269  0
7270  0
7271  0
7272  0
7273  1
7274  0
7275  0
7276  0
7277  0
7278  0
7279  0
7280  0
7281  0
7282  0
7283  0
7284  0
7285  0
7286  0
7287  0
7288  0
7289  1
7290  0
7291  0
7292  0
7293  0
7294  0
7295  0
7296  0
7297  0
7298  0
7299  0
7300  0
7301  1
7302  0
7303  0
7304  0
7305  0
7306  0
7307  0
7308  0
7309  0
7310  0
7311  0
7312  0
7313  0
7314  0
7315  0
7316  0
7317  0
7318  0
7319  0
7320  0
7321  0
7322  0
7323  0
7324  0
7325  0
7326  0
7327  0
7328  0
7329  0
7330  0
7331  1
7332  0
7333  0
7334  0
7335  0
7336  0
7337  0
7338  0
7339  0
7340  0
7341  0
7342  0
7343  0
7344  0
7345  0
7346  0
7347  0
7348  0
7349  1
7350  0
7351  0
7352  0
7353  0
7354  0
7355  1
7356  1
7357  0
7358  0
7359  0
7360  0
7361  0
7362  0
7363  0
7364  0
7365  0
7366  0
7367  0
7368  0
7369  0
7370  1
7371  0
7372  0
7373  0
7374  0
7375  0
7376  0
7377  0
7378  0
7379  0
7380  0
7381  0
7382  0
7383  0
7384  0
7385  0
7386  0
7387  0
7388  0
7389  0
7390  0
7391  0
7392  0
7393  0
7394  0
7395  0
7396  0
7397  0
7398  0
7399  0
7400  0
7401  0
7402  0
7403  0
7404  0
7405  0
7406  0
7407  0
7408  0
7409  0
7410  0
7411  0
7412  0
7413  0
7414  1
7415  0
7416  0
7417  0
7418  0
7419  0
7420  2
7421  2
7422  0
7423  0
7424  1
7425  0
7426  0
7427  0
7428  0
7429  0
7430  0
7431  0
7432  0
7433  0
7434  0
7435  0
7436  1
7437  0
7438  0
7439  0
7440  0
7441  0
7442  0
7443  0
7444  0
7445  0
7446  0
7447  1
7448  0
7449  2
7450  0
7451  0
7452  0
7453  0
7454  0
7455  0
7456  0
7457  0
7458  0
7459  0
7460  0
7461  0
7462  0
7463  0
7464  0
7465  1
7466  0
7467  0
7468  0
7469  0
7470  0
7471  0
7472  0
7473  1
7474  0
7475  0
7476  0
7477  0
7478  0
7479  0
7480  0
7481  0
7482  0
7483  0
7484  0
7485  0
7486  0
7487  0
7488  0
7489  0
7490  0
7491  0
7492  0
7493  0
7494  0
7495  0
7496  0
7497  0
7498  0
7499  0
7500  0
7501  0
7502  0
7503  0
7504  0
7505  0
7506  0
7507  0
7508  0
7509  0
7510  0
7511  0
7512  0
7513  0
7514  0
7515  0
7516  0
7517  0
7518  1
7519  0
7520  0
7521  0
7522  0
7523  0
7524  0
7525  0
7526  0
7527  0
7528  1
7529  1
7530  0
7531  1
7532  0
7533  0
7534  0
7535  0
7536  0
7537  0
7538  0
7539  1
7540  0
7541  0
7542  0
7543  0
7544  0
7545  0
7546  0
7547  1
7548  0
7549  0
7550  0
7551  0
7552  0
7553  0
7554  0
7555  0
7556  0
7557  0
7558  1
7559  0
7560  0
7561  0
7562  0
7563  0
7564  0
7565  0
7566  0
7567  0
7568  0
7569  0
7570  0
7571  0
7572  0
7573  0
7574  0
7575  0
7576  0
7577  0
7578  0
7579  0
7580  0
7581  1
7582  0
7583  0
7584  0
7585  0
7586  0
7587  0
7588  0
7589  0
7590  0
7591  0
7592  0
7593  1
7594  0
7595  0
7596  0
7597  1
7598  0
7599  0
7600  0
7601  0
7602  0
7603  0
7604  0
7605  0
7606  0
7607  0
7608  0
7609  0
7610  0
7611  0
7612  0
7613  0
7614  0
7615  0
7616  0
7617  0
7618  0
7619  0
7620  0
7621  0
7622  0
7623  0
7624  0
7625  0
7626  0
7627  0
7628  0
7629  0
7630  0
7631  0
7632  0
7633  0
7634  0
7635  0
7636  0
7637  0
7638  0
7639  0
7640  0
7641  0
7642  0
7643  0
7644  0
7645  0
7646  1
7647  0
7648  0
7649  0
7650  0
7651  0
7652  0
7653  0
7654  0
7655  0
7656  0
7657  0
7658  0
7659  0
7660  0
7661  0
7662  0
7663  0
7664  0
7665  0
7666  0
7667  0
7668  0
7669  0
7670  0
7671  0
7672  0
7673  0
7674  0
7675  0
7676  0
7677  0
7678  0
7679  0
7680  0
7681  0
7682  0
7683  0
7684  0
7685  0
7686  0
7687  0
7688  0
7689  0
7690  0
7691  0
7692  0
7693  0
7694  0
7695  0
7696  0
7697  0
7698  0
7699  1
7700  0
7701  0
7702  0
7703  0
7704  0
7705  0
7706  0
7707  0
7708  0
7709  0
7710  0
7711  0
7712  0
7713  0
7714  0
7715  0
7716  0
7717  0
7718  0
7719  0
7720  0
7721  0
7722  0
7723  0
7724  1
7725  0
7726  0
7727  0
7728  0
7729  0
7730  0
7731  0
7732  0
7733  1
7734  0
7735  0
7736  0
7737  0
7738  0
7739  0
7740  0
7741  0
7742  0
7743  0
7744  0
7745  0
7746  0
7747  0
7748  0
7749  0
7750  0
7751  0
7752  0
7753  0
7754  0
7755  0
7756  0
7757  0
7758  0
7759  0
7760  0
7761  0
7762  0
7763  0
7764  0
7765  0
7766  0
7767  0
7768  0
7769  0
7770  0
7771  0
7772  1
7773  0
7774  0
7775  0
7776  0
7777  0
7778  0
7779  0
7780  0
7781  0
7782  0
7783  0
7784  0
7785  0
7786  0
7787  0
7788  0
7789  0
7790  0
7791  0
7792  0
7793  0
7794  0
7795  0
7796  0
7797  0
7798  0
7799  0
7800  0
7801  0
7802  0
7803  0
7804  0
7805  0
7806  0
7807  0
7808  0
7809  0
7810  0
7811  0
7812  0
7813  0
7814  0
7815  0
7816  0
7817  0
7818  0
7819  0
7820  0
7821  0
7822  0
7823  0
7824  0
7825  0
7826  0
7827  0
7828  0
7829  0
7830  0
7831  0
7832  0
7833  0
7834  0
7835  0
7836  0
7837  0
7838  0
7839  0
7840  0
7841  0
7842  0
7843  0
7844  0
7845  0
7846  0
7847  0
7848  0
7849  0
7850  0
7851  0
7852  0
7853  0
7854  0
7855  0
7856  0
7857  0
7858  0
7859  0
7860  0
7861  0
7862  0
7863  0
7864  0
7865  0
7866  0
7867  0
7868  0
7869  0
7870  0
7871  0
7872  0
7873  0
7874  0
7875  0
7876  1
7877  0
7878  0
7879  0
7880  0
7881  0
7882  0
7883  0
7884  0
7885  0
7886  0
7887  0
7888  0
7889  0
7890  0
7891  0
7892  0
7893  0
7894  0
7895  0
7896  0
7897  0
7898  0
7899  0
7900  0
7901  0
7902  0
7903  0
7904  0
7905  0
7906  0
7907  0
7908  0
7909  1
7910  0
7911  0
7912  0
7913  0
7914  0
7915  0
7916  0
7917  0
7918  0
7919  0
7920  0
7921  4
7922  1
7923  1
7924  0
7925  3
7926  3
7927  3
7928  2
7929  3
7930  3
7931  1
7932  7
7933  2
7934  2
7935  3
7936  0
7937  2
7938  1
7939  0
7940  0
7941  0
7942  0
7943  0
7944  0
7945  0
7946  0
7947  0
7948  0
7949  0
7950  0
7951  0
7952  0
7953  0
7954  1
7955  0
7956  0
7957  0
7958  0
7959  0
7960  0
7961  0
7962  0
7963  0
7964  0
7965  0
7966  0
7967  0
7968  0
7969  0
7970  1
7971  0
7972  0
7973  1
7974  0
7975  0
7976  0
7977  0
7978  0
7979  0
7980  0
7981  0
7982  0
7983  0
7984  0
7985  0
7986  0
7987  0
7988  0
7989  0
7990  0
7991  0
7992  0
7993  0
7994  0
7995  0
7996  0
7997  0
7998  0
7999  0
8000  0
8001  0
8002  0
8003  0
8004  0
8005  0
8006  0
8007  0
8008  0
8009  0
8010  0
8011  0
8012  0
8013  0
8014  0
8015  0
8016  0
8017  0
8018  0
8019  0
8020  0
8021  0
8022  0
8023  0
8024  0
8025  0
8026  0
8027  0
8028  0
8029  0
8030  0
8031  0
8032  0
8033  0
8034  0
8035  0
8036  0
8037  0
8038  1
8039  0
8040  0
8041  0
8042  0
8043  0
8044  0
8045  0
8046  0
8047  0
8048  0
8049  0
8050  0
8051  0
8052  1
8053  0
8054  0
8055  0
8056  0
8057  0
8058  0
8059  0
8060  0
8061  0
8062  0
8063  0
8064  0
8065  0
8066  0
8067  0
8068  0
8069  0
8070  0
8071  0
8072  0
8073  0
8074  0
8075  0
8076  0
8077  0
8078  0
8079  0
8080  0
8081  0
8082  0
8083  0
8084  0
8085  0
8086  0
8087  0
8088  0
8089  0
8090  0
8091  0
8092  0
8093  0
8094  0
8095  0
8096  0
8097  0
8098  0
8099  0
8100  0
8101  0
8102  0
8103  0
8104  1
8105  0
8106  0
8107  0
8108  0
8109  0
8110  0
8111  1
8112  0
8113  0
8114  0
8115  0
8116  0
8117  0
8118  0
8119  0
8120  0
8121  0
8122  0
8123  0
8124  0
8125  0
8126  0
8127  0
8128  0
8129  0
8130  0
8131  0
8132  0
8133  0
8134  0
8135  0
8136  0
8137  0
8138  0
8139  0
8140  0
8141  0
8142  0
8143  0
8144  0
8145  0
8146  0
8147  0
8148  0
8149  0
8150  0
8151  0
8152  0
8153  0
8154  0
8155  0
8156  0
8157  0
8158  0
8159  0
8160  0
8161  0
8162  0
8163  0
8164  0
8165  0
8166  0
8167  0
8168  0
8169  0
8170  0
8171  0
8172  0
8173  0
8174  0
8175  0
8176  0
8177  0
8178  0
8179  0
8180  0
8181  0
8182  0
8183  0
8184  0
8185  0
8186  0
8187  0
8188  0
8189  0
8190  0
8191  0
