0  62
1  2
2  0
3  0
4  0
5  3
6  0
7  1
8  0
9  0
10  0
11  0
12  1
13  0
14  0
15  0
16  0
17  0
18  1
19  0
20  1
21  0
22  1
23  0
24  0
25  0
26  0
27  0
28  0
29  0
30  0
31  0
32  0
33  0
34  0
35  0
36  0
37  0
38  0
39  0
40  0
41  0
42  0
43  1
44  0
45  1
46  0
47  0
48  0
49  0
50  0
51  0
52  0
53  0
54  0
55  0
56  0
57  0
58  0
59  0
60  0
61  0
62  0
63  0
64  0
65  0
66  0
67  0
68  0
69  0
70  0
71  0
72  0
73  0
74  0
75  0
76  1
77  0
78  0
79  0
80  0
81  0
82  0
83  0
84  0
85  0
86  0
87  0
88  0
89  0
90  0
91  0
92  0
93  0
94  0
95  0
96  0
97  0
98  0
99  0
100  0
101  0
102  0
103  0
104  0
105  0
106  0
107  0
108  0
109  0
110  0
111  0
112  0
113  0
114  0
115  0
116  0
117  0
118  0
119  1
120  0
121  0
122  0
123  0
124  0
125  0
126  0
127  0
128  0
129  0
130  0
131  0
132  0
133  0
134  0
135  0
136  0
137  0
138  0
139  0
140  0
141  0
142  0
143  1
144  0
145  0
146  0
147  1
148  0
149  0
150  0
151  0
152  0
153  0
154  1
155  0
156  1
157  0
158  0
159  0
160  0
161  0
162  0
163  0
164  0
165  0
166  0
167  0
168  0
169  0
170  0
171  0
172  0
173  0
174  0
175  0
176  0
177  0
178  0
179  0
180  0
181  0
182  1
183  0
184  0
185  0
186  0
187  0
188  1
189  3
190  1
191  0
192  0
193  0
194  0
195  0
196  0
197  0
198  0
199  1
200  1
201  0
202  0
203  1
204  0
205  0
206  0
207  0
208  0
209  2
210  0
211  0
212  0
213  0
214  0
215  0
216  0
217  2
218  0
219  3
220  0
221  0
222  0
223  1
224  0
225  0
226  0
227  0
228  1
229  0
230  1
231  0
232  2
233  0
234  0
235  0
236  2
237  0
238  2
239  0
240  1
241  2
242  1
243  2
244  1
245  0
246  2
247  1
248  1
249  0
250  1
251  1
252  0
253  4
254  5
255  7
256  11
257  16
258  22
259  36
260  33
261  48
262  40
263  54
264  59
265  67
266  93
267  84
268  103
269  114
270  120
271  151
272  164
273  151
274  172
275  171
276  185
277  193
278  212
279  216
280  236
281  256
282  248
283  272
284  276
285  294
286  314
287  309
288  314
289  372
290  326
291  356
292  316
293  346
294  363
295  363
296  370
297  392
298  402
299  407
300  407
301  415
302  416
303  380
304  413
305  446
306  452
307  428
308  457
309  479
310  429
311  500
312  467
313  507
314  489
315  479
316  532
317  492
318  527
319  479
320  519
321  502
322  527
323  502
324  530
325  540
326  524
327  539
328  547
329  505
330  602
331  576
332  519
333  575
334  563
335  583
336  612
337  595
338  598
339  524
340  576
341  626
342  595
343  635
344  602
345  572
346  563
347  623
348  628
349  633
350  598
351  599
352  601
353  601
354  599
355  583
356  607
357  580
358  650
359  663
360  651
361  617
362  634
363  664
364  657
365  655
366  622
367  609
368  659
369  627
370  627
371  665
372  604
373  651
374  644
375  684
376  647
377  648
378  627
379  682
380  725
381  669
382  648
383  682
384  702
385  622
386  614
387  654
388  665
389  659
390  686
391  689
392  678
393  644
394  648
395  654
396  680
397  679
398  726
399  624
400  667
401  771
402  706
403  665
404  707
405  699
406  684
407  774
408  670
409  704
410  744
411  708
412  739
413  783
414  781
415  755
416  782
417  746
418  716
419  766
420  740
421  801
422  740
423  761
424  785
425  791
426  794
427  766
428  754
429  744
430  791
431  880
432  844
433  960
434  1241
435  1409
436  1964
437  2435
438  2665
439  2975
440  2645
441  2145
442  1643
443  1159
444  985
445  874
446  775
447  802
448  792
449  742
450  842
451  814
452  734
453  805
454  814
455  829
456  815
457  792
458  844
459  781
460  857
461  796
462  838
463  797
464  885
465  870
466  841
467  898
468  863
469  840
470  852
471  879
472  969
473  923
474  952
475  945
476  923
477  929
478  897
479  966
480  943
481  961
482  978
483  909
484  950
485  934
486  1001
487  1017
488  989
489  1064
490  1028
491  967
492  1027
493  1126
494  1018
495  1097
496  1107
497  1059
498  1035
499  1105
500  1133
501  1079
502  1140
503  1067
504  1135
505  1083
506  1106
507  1122
508  1150
509  1152
510  1148
511  1114
512  1178
513  1182
514  1132
515  1187
516  1182
517  1262
518  1096
519  1187
520  1207
521  1184
522  1235
523  1167
524  1234
525  1198
526  1276
527  1186
528  1218
529  1237
530  1259
531  1189
532  1258
533  1209
534  1239
535  1295
536  1423
537  1359
538  1449
539  1383
540  1538
541  1423
542  1462
543  1406
544  1506
545  1448
546  1469
547  1532
548  1549
549  1603
550  1672
551  1765
552  1923
553  2050
554  2293
555  2497
556  2453
557  2469
558  2157
559  1927
560  1720
561  1636
562  1617
563  1613
564  1520
565  1495
566  1563
567  1622
568  1588
569  1610
570  1658
571  1734
572  1642
573  1682
574  1732
575  1725
576  1722
577  1776
578  1727
579  1752
580  1773
581  1743
582  1944
583  1972
584  2041
585  2341
586  2564
587  2505
588  2703
589  2489
590  2444
591  2143
592  2125
593  2278
594  2491
595  3259
596  4411
597  7024
598  10807
599  15960
600  20393
601  23205
602  22803
603  20100
604  15749
605  10928
606  7146
607  4828
608  3992
609  4210
610  5087
611  6651
612  7791
613  8012
614  7196
615  5534
616  3952
617  2906
618  2266
619  2053
620  1885
621  1838
622  1766
623  1640
624  1739
625  1843
626  1940
627  2329
628  3199
629  4588
630  6796
631  9936
632  12283
633  13404
634  12405
635  9495
636  6724
637  4237
638  2575
639  1905
640  1563
641  1444
642  1384
643  1337
644  1322
645  1329
646  1318
647  1347
648  1279
649  1356
650  1345
651  1335
652  1409
653  1478
654  1407
655  1410
656  1340
657  1302
658  1378
659  1271
660  1337
661  1364
662  1383
663  1383
664  1348
665  1410
666  1504
667  1508
668  1601
669  1618
670  1671
671  1648
672  1693
673  1619
674  1533
675  1382
676  1430
677  1473
678  1371
679  1365
680  1432
681  1484
682  1481
683  1447
684  1564
685  1580
686  1780
687  1850
688  2016
689  2082
690  2141
691  2191
692  2269
693  2261
694  2532
695  3018
696  3537
697  3962
698  4303
699  4733
700  5196
701  5561
702  5448
703  5017
704  4062
705  3288
706  2847
707  2773
708  3204
709  3485
710  3484
711  3104
712  2711
713  2159
714  2011
715  1954
716  2186
717  2587
718  2825
719  2956
720  2652
721  2381
722  2079
723  1778
724  1551
725  1327
726  1168
727  977
728  912
729  910
730  841
731  781
732  868
733  857
734  785
735  847
736  830
737  814
738  826
739  781
740  802
741  779
742  861
743  875
744  824
745  784
746  838
747  816
748  860
749  867
750  903
751  923
752  1021
753  946
754  934
755  852
756  848
757  859
758  859
759  861
760  852
761  850
762  825
763  802
764  864
765  835
766  835
767  868
768  808
769  835
770  835
771  809
772  848
773  782
774  848
775  875
776  822
777  800
778  865
779  814
780  811
781  827
782  822
783  847
784  816
785  848
786  842
787  840
788  781
789  839
790  815
791  846
792  860
793  826
794  848
795  872
796  875
797  842
798  845
799  922
800  851
801  815
802  830
803  822
804  804
805  930
806  921
807  988
808  979
809  926
810  952
811  850
812  847
813  856
814  837
815  791
816  826
817  850
818  857
819  796
820  802
821  880
822  855
823  874
824  787
825  880
826  886
827  836
828  827
829  861
830  919
831  834
832  870
833  772
834  870
835  784
836  857
837  821
838  779
839  794
840  807
841  844
842  803
843  814
844  852
845  802
846  800
847  813
848  821
849  833
850  848
851  818
852  824
853  887
854  802
855  850
856  881
857  908
858  872
859  879
860  864
861  853
862  861
863  901
864  820
865  842
866  904
867  926
868  1155
869  1392
870  1895
871  2564
872  3164
873  3567
874  3444
875  2711
876  2011
877  1386
878  1035
879  921
880  864
881  838
882  871
883  753
884  804
885  834
886  816
887  831
888  746
889  821
890  849
891  848
892  783
893  796
894  797
895  810
896  767
897  803
898  770
899  769
900  748
901  814
902  782
903  824
904  781
905  827
906  776
907  790
908  733
909  825
910  803
911  816
912  799
913  846
914  716
915  759
916  768
917  796
918  794
919  839
920  858
921  784
922  838
923  804
924  791
925  778
926  778
927  788
928  696
929  735
930  827
931  831
932  790
933  848
934  753
935  779
936  782
937  779
938  736
939  812
940  743
941  735
942  801
943  710
944  777
945  758
946  768
947  761
948  755
949  838
950  787
951  775
952  781
953  755
954  792
955  770
956  807
957  833
958  796
959  754
960  778
961  748
962  748
963  784
964  734
965  768
966  753
967  810
968  839
969  789
970  872
971  968
972  1108
973  1523
974  1846
975  2257
976  2307
977  2093
978  1730
979  1375
980  1036
981  905
982  803
983  762
984  728
985  740
986  780
987  762
988  772
989  769
990  778
991  730
992  781
993  757
994  767
995  762
996  695
997  779
998  771
999  740
1000  716
1001  764
1002  755
1003  730
1004  720
1005  727
1006  681
1007  777
1008  753
1009  733
1010  747
1011  733
1012  700
1013  783
1014  757
1015  771
1016  767
1017  736
1018  815
1019  769
1020  740
1021  772
1022  770
1023  720
1024  805
1025  756
1026  678
1027  706
1028  742
1029  761
1030  704
1031  728
1032  689
1033  752
1034  732
1035  738
1036  745
1037  726
1038  757
1039  719
1040  742
1041  765
1042  718
1043  704
1044  725
1045  736
1046  761
1047  717
1048  751
1049  729
1050  738
1051  710
1052  705
1053  705
1054  713
1055  689
1056  675
1057  786
1058  680
1059  754
1060  721
1061  737
1062  738
1063  773
1064  764
1065  721
1066  761
1067  736
1068  697
1069  712
1070  730
1071  719
1072  744
1073  787
1074  818
1075  837
1076  851
1077  864
1078  827
1079  830
1080  776
1081  807
1082  799
1083  835
1084  899
1085  1051
1086  1453
1087  2143
1088  3710
1089  6351
1090  10340
1091  14663
1092  18352
1093  19068
1094  16498
1095  12098
1096  7258
1097  3791
1098  1925
1099  983
1100  704
1101  604
1102  604
1103  567
1104  613
1105  560
1106  610
1107  573
1108  567
1109  584
1110  597
1111  597
1112  571
1113  527
1114  573
1115  564
1116  551
1117  546
1118  546
1119  567
1120  578
1121  564
1122  557
1123  519
1124  538
1125  555
1126  496
1127  529
1128  565
1129  568
1130  509
1131  521
1132  562
1133  542
1134  585
1135  538
1136  567
1137  594
1138  667
1139  681
1140  776
1141  766
1142  717
1143  702
1144  618
1145  572
1146  522
1147  545
1148  520
1149  527
1150  460
1151  549
1152  555
1153  504
1154  502
1155  516
1156  542
1157  533
1158  548
1159  545
1160  518
1161  553
1162  518
1163  534
1164  557
1165  524
1166  521
1167  497
1168  518
1169  525
1170  528
1171  530
1172  504
1173  600
1174  576
1175  664
1176  763
1177  814
1178  818
1179  829
1180  767
1181  699
1182  587
1183  543
1184  546
1185  481
1186  556
1187  527
1188  555
1189  638
1190  770
1191  988
1192  1361
1193  1693
1194  2068
1195  2090
1196  1973
1197  1610
1198  1188
1199  825
1200  622
1201  588
1202  488
1203  493
1204  424
1205  501
1206  441
1207  506
1208  463
1209  466
1210  470
1211  468
1212  461
1213  465
1214  481
1215  501
1216  466
1217  437
1218  483
1219  433
1220  480
1221  458
1222  473
1223  507
1224  474
1225  458
1226  450
1227  458
1228  495
1229  484
1230  395
1231  447
1232  447
1233  476
1234  459
1235  455
1236  459
1237  457
1238  452
1239  463
1240  416
1241  451
1242  422
1243  460
1244  503
1245  470
1246  427
1247  446
1248  486
1249  437
1250  464
1251  454
1252  452
1253  408
1254  426
1255  486
1256  421
1257  424
1258  447
1259  462
1260  495
1261  509
1262  444
1263  429
1264  448
1265  425
1266  444
1267  447
1268  428
1269  435
1270  460
1271  409
1272  468
1273  433
1274  453
1275  412
1276  471
1277  484
1278  474
1279  492
1280  468
1281  458
1282  433
1283  429
1284  430
1285  420
1286  449
1287  410
1288  441
1289  379
1290  437
1291  417
1292  440
1293  434
1294  383
1295  467
1296  406
1297  430
1298  444
1299  426
1300  417
1301  423
1302  414
1303  440
1304  466
1305  460
1306  479
1307  498
1308  455
1309  495
1310  484
1311  478
1312  459
1313  438
1314  359
1315  387
1316  379
1317  405
1318  374
1319  391
1320  429
1321  386
1322  393
1323  398
1324  369
1325  389
1326  388
1327  416
1328  408
1329  396
1330  389
1331  384
1332  385
1333  362
1334  361
1335  383
1336  422
1337  399
1338  391
1339  418
1340  397
1341  386
1342  388
1343  377
1344  401
1345  404
1346  381
1347  392
1348  393
1349  396
1350  404
1351  387
1352  382
1353  354
1354  411
1355  383
1356  403
1357  388
1358  371
1359  364
1360  392
1361  407
1362  381
1363  379
1364  404
1365  396
1366  411
1367  469
1368  476
1369  459
1370  462
1371  411
1372  362
1373  401
1374  347
1375  360
1376  415
1377  393
1378  388
1379  367
1380  379
1381  365
1382  391
1383  383
1384  390
1385  400
1386  394
1387  429
1388  397
1389  399
1390  325
1391  357
1392  332
1393  381
1394  333
1395  356
1396  383
1397  379
1398  365
1399  351
1400  387
1401  363
1402  369
1403  356
1404  354
1405  354
1406  350
1407  335
1408  344
1409  340
1410  348
1411  364
1412  333
1413  329
1414  362
1415  368
1416  340
1417  326
1418  350
1419  347
1420  349
1421  360
1422  350
1423  400
1424  346
1425  325
1426  382
1427  330
1428  355
1429  339
1430  376
1431  340
1432  350
1433  326
1434  359
1435  346
1436  331
1437  336
1438  325
1439  346
1440  335
1441  373
1442  293
1443  302
1444  348
1445  357
1446  330
1447  349
1448  338
1449  335
1450  350
1451  303
1452  321
1453  331
1454  359
1455  315
1456  342
1457  315
1458  306
1459  309
1460  336
1461  332
1462  346
1463  331
1464  365
1465  405
1466  464
1467  567
1468  690
1469  766
1470  804
1471  726
1472  663
1473  523
1474  459
1475  397
1476  359
1477  319
1478  330
1479  322
1480  317
1481  343
1482  288
1483  291
1484  319
1485  322
1486  323
1487  326
1488  281
1489  305
1490  306
1491  320
1492  295
1493  329
1494  334
1495  307
1496  319
1497  338
1498  302
1499  314
1500  277
1501  304
1502  324
1503  308
1504  304
1505  318
1506  308
1507  298
1508  302
1509  320
1510  291
1511  292
1512  312
1513  332
1514  308
1515  308
1516  309
1517  298
1518  305
1519  307
1520  301
1521  327
1522  322
1523  283
1524  341
1525  323
1526  309
1527  309
1528  302
1529  312
1530  302
1531  292
1532  310
1533  294
1534  337
1535  291
1536  283
1537  301
1538  301
1539  278
1540  289
1541  310
1542  317
1543  328
1544  294
1545  313
1546  291
1547  307
1548  278
1549  293
1550  259
1551  292
1552  290
1553  275
1554  295
1555  295
1556  272
1557  304
1558  314
1559  300
1560  291
1561  267
1562  266
1563  263
1564  269
1565  270
1566  293
1567  287
1568  309
1569  281
1570  316
1571  277
1572  294
1573  272
1574  279
1575  292
1576  268
1577  275
1578  262
1579  294
1580  261
1581  304
1582  293
1583  278
1584  300
1585  266
1586  271
1587  279
1588  290
1589  266
1590  275
1591  283
1592  276
1593  289
1594  298
1595  265
1596  258
1597  279
1598  277
1599  281
1600  286
1601  280
1602  253
1603  264
1604  255
1605  231
1606  259
1607  257
1608  269
1609  270
1610  270
1611  227
1612  249
1613  271
1614  262
1615  262
1616  263
1617  264
1618  264
1619  256
1620  284
1621  268
1622  240
1623  281
1624  261
1625  267
1626  250
1627  221
1628  270
1629  242
1630  277
1631  258
1632  256
1633  270
1634  247
1635  219
1636  284
1637  262
1638  265
1639  292
1640  256
1641  266
1642  277
1643  267
1644  263
1645  267
1646  255
1647  222
1648  262
1649  246
1650  274
1651  267
1652  275
1653  269
1654  315
1655  285
1656  323
1657  260
1658  281
1659  273
1660  291
1661  272
1662  303
1663  317
1664  275
1665  268
1666  261
1667  251
1668  255
1669  263
1670  214
1671  237
1672  260
1673  259
1674  247
1675  230
1676  263
1677  277
1678  275
1679  259
1680  243
1681  205
1682  222
1683  257
1684  236
1685  238
1686  253
1687  256
1688  257
1689  258
1690  244
1691  239
1692  237
1693  243
1694  219
1695  236
1696  262
1697  251
1698  232
1699  243
1700  240
1701  225
1702  230
1703  224
1704  242
1705  244
1706  228
1707  243
1708  236
1709  225
1710  224
1711  234
1712  249
1713  226
1714  251
1715  228
1716  227
1717  235
1718  243
1719  233
1720  225
1721  259
1722  210
1723  225
1724  207
1725  237
1726  220
1727  196
1728  235
1729  225
1730  239
1731  197
1732  227
1733  231
1734  223
1735  246
1736  217
1737  223
1738  239
1739  227
1740  237
1741  233
1742  238
1743  216
1744  202
1745  220
1746  260
1747  222
1748  224
1749  220
1750  244
1751  189
1752  251
1753  212
1754  231
1755  235
1756  204
1757  228
1758  213
1759  221
1760  247
1761  248
1762  200
1763  199
1764  230
1765  218
1766  227
1767  207
1768  213
1769  209
1770  228
1771  218
1772  193
1773  203
1774  239
1775  220
1776  213
1777  220
1778  219
1779  232
1780  214
1781  223
1782  227
1783  203
1784  212
1785  212
1786  205
1787  205
1788  216
1789  207
1790  207
1791  216
1792  217
1793  195
1794  210
1795  199
1796  182
1797  197
1798  193
1799  202
1800  198
1801  207
1802  204
1803  199
1804  219
1805  238
1806  212
1807  200
1808  202
1809  211
1810  220
1811  199
1812  201
1813  190
1814  166
1815  226
1816  214
1817  204
1818  221
1819  194
1820  178
1821  194
1822  208
1823  192
1824  216
1825  195
1826  208
1827  215
1828  190
1829  191
1830  200
1831  207
1832  213
1833  200
1834  213
1835  173
1836  210
1837  178
1838  213
1839  226
1840  208
1841  210
1842  198
1843  181
1844  197
1845  202
1846  203
1847  198
1848  199
1849  230
1850  188
1851  176
1852  196
1853  203
1854  201
1855  194
1856  212
1857  196
1858  197
1859  176
1860  173
1861  191
1862  210
1863  196
1864  188
1865  196
1866  191
1867  202
1868  183
1869  192
1870  198
1871  187
1872  174
1873  184
1874  213
1875  189
1876  209
1877  167
1878  207
1879  219
1880  205
1881  192
1882  207
1883  183
1884  189
1885  221
1886  217
1887  205
1888  185
1889  197
1890  181
1891  174
1892  179
1893  173
1894  170
1895  191
1896  184
1897  184
1898  224
1899  179
1900  178
1901  186
1902  203
1903  219
1904  162
1905  178
1906  209
1907  189
1908  184
1909  192
1910  179
1911  193
1912  175
1913  187
1914  167
1915  190
1916  182
1917  175
1918  171
1919  163
1920  184
1921  200
1922  199
1923  196
1924  197
1925  168
1926  170
1927  190
1928  196
1929  187
1930  182
1931  181
1932  164
1933  199
1934  178
1935  182
1936  180
1937  193
1938  163
1939  186
1940  176
1941  171
1942  192
1943  165
1944  139
1945  169
1946  161
1947  169
1948  161
1949  195
1950  210
1951  199
1952  195
1953  217
1954  243
1955  242
1956  255
1957  257
1958  276
1959  208
1960  201
1961  209
1962  169
1963  167
1964  190
1965  168
1966  172
1967  183
1968  181
1969  189
1970  182
1971  168
1972  141
1973  176
1974  149
1975  155
1976  178
1977  194
1978  157
1979  168
1980  166
1981  154
1982  160
1983  147
1984  166
1985  194
1986  161
1987  158
1988  177
1989  165
1990  174
1991  193
1992  177
1993  180
1994  155
1995  162
1996  189
1997  152
1998  151
1999  169
2000  162
2001  146
2002  162
2003  161
2004  179
2005  184
2006  155
2007  174
2008  135
2009  150
2010  144
2011  162
2012  180
2013  169
2014  166
2015  161
2016  186
2017  143
2018  172
2019  172
2020  168
2021  154
2022  182
2023  162
2024  146
2025  140
2026  148
2027  166
2028  171
2029  160
2030  144
2031  147
2032  163
2033  174
2034  141
2035  143
2036  155
2037  151
2038  157
2039  169
2040  158
2041  138
2042  141
2043  150
2044  176
2045  186
2046  183
2047  186
2048  193
2049  196
2050  171
2051  166
2052  173
2053  151
2054  152
2055  158
2056  196
2057  167
2058  154
2059  169
2060  138
2061  191
2062  179
2063  158
2064  177
2065  163
2066  178
2067  162
2068  153
2069  155
2070  142
2071  131
2072  183
2073  168
2074  173
2075  138
2076  159
2077  135
2078  143
2079  153
2080  157
2081  183
2082  157
2083  163
2084  149
2085  151
2086  169
2087  171
2088  134
2089  153
2090  154
2091  152
2092  153
2093  189
2094  131
2095  152
2096  148
2097  145
2098  140
2099  155
2100  167
2101  147
2102  151
2103  142
2104  163
2105  157
2106  139
2107  165
2108  142
2109  178
2110  156
2111  154
2112  149
2113  146
2114  155
2115  117
2116  143
2117  123
2118  145
2119  138
2120  161
2121  156
2122  148
2123  134
2124  138
2125  156
2126  180
2127  162
2128  160
2129  152
2130  162
2131  155
2132  142
2133  129
2134  155
2135  171
2136  152
2137  162
2138  130
2139  146
2140  172
2141  194
2142  160
2143  154
2144  162
2145  154
2146  137
2147  151
2148  144
2149  146
2150  119
2151  141
2152  155
2153  146
2154  157
2155  139
2156  144
2157  119
2158  157
2159  146
2160  150
2161  139
2162  132
2163  141
2164  135
2165  136
2166  151
2167  116
2168  137
2169  127
2170  153
2171  143
2172  143
2173  147
2174  136
2175  129
2176  138
2177  144
2178  125
2179  144
2180  148
2181  143
2182  122
2183  136
2184  140
2185  154
2186  155
2187  137
2188  127
2189  126
2190  143
2191  142
2192  139
2193  156
2194  140
2195  138
2196  148
2197  157
2198  139
2199  128
2200  145
2201  145
2202  146
2203  136
2204  135
2205  119
2206  147
2207  125
2208  119
2209  125
2210  115
2211  145
2212  132
2213  144
2214  138
2215  144
2216  148
2217  122
2218  128
2219  130
2220  139
2221  120
2222  138
2223  148
2224  143
2225  119
2226  125
2227  130
2228  139
2229  151
2230  147
2231  148
2232  148
2233  159
2234  121
2235  143
2236  136
2237  155
2238  136
2239  126
2240  131
2241  129
2242  126
2243  166
2244  140
2245  130
2246  141
2247  122
2248  143
2249  114
2250  152
2251  121
2252  146
2253  135
2254  129
2255  134
2256  140
2257  126
2258  137
2259  131
2260  132
2261  114
2262  128
2263  140
2264  134
2265  148
2266  145
2267  126
2268  147
2269  130
2270  128
2271  121
2272  137
2273  147
2274  112
2275  117
2276  111
2277  138
2278  130
2279  152
2280  131
2281  107
2282  154
2283  134
2284  138
2285  123
2286  118
2287  126
2288  136
2289  139
2290  153
2291  119
2292  129
2293  124
2294  116
2295  149
2296  137
2297  129
2298  127
2299  134
2300  126
2301  124
2302  132
2303  144
2304  125
2305  127
2306  108
2307  109
2308  133
2309  127
2310  136
2311  123
2312  132
2313  114
2314  134
2315  113
2316  102
2317  103
2318  120
2319  127
2320  125
2321  133
2322  119
2323  115
2324  125
2325  120
2326  115
2327  115
2328  110
2329  123
2330  130
2331  135
2332  102
2333  149
2334  122
2335  117
2336  116
2337  103
2338  118
2339  120
2340  116
2341  118
2342  150
2343  120
2344  146
2345  124
2346  113
2347  124
2348  135
2349  113
2350  141
2351  135
2352  120
2353  126
2354  113
2355  108
2356  120
2357  118
2358  133
2359  125
2360  101
2361  117
2362  119
2363  93
2364  123
2365  128
2366  118
2367  106
2368  132
2369  115
2370  121
2371  124
2372  111
2373  124
2374  126
2375  137
2376  107
2377  131
2378  128
2379  139
2380  118
2381  109
2382  123
2383  117
2384  128
2385  129
2386  120
2387  123
2388  102
2389  108
2390  124
2391  103
2392  117
2393  120
2394  110
2395  116
2396  105
2397  124
2398  97
2399  138
2400  118
2401  137
2402  104
2403  110
2404  114
2405  133
2406  122
2407  123
2408  116
2409  127
2410  100
2411  131
2412  107
2413  90
2414  104
2415  124
2416  123
2417  127
2418  101
2419  106
2420  116
2421  123
2422  91
2423  100
2424  127
2425  133
2426  113
2427  106
2428  111
2429  132
2430  106
2431  127
2432  108
2433  132
2434  127
2435  115
2436  115
2437  112
2438  111
2439  124
2440  121
2441  126
2442  116
2443  110
2444  125
2445  105
2446  113
2447  104
2448  128
2449  135
2450  106
2451  120
2452  122
2453  110
2454  108
2455  117
2456  111
2457  109
2458  81
2459  109
2460  139
2461  92
2462  108
2463  106
2464  124
2465  118
2466  124
2467  132
2468  134
2469  128
2470  118
2471  116
2472  111
2473  129
2474  113
2475  99
2476  120
2477  119
2478  141
2479  113
2480  92
2481  99
2482  118
2483  115
2484  108
2485  108
2486  121
2487  121
2488  111
2489  122
2490  112
2491  100
2492  110
2493  104
2494  111
2495  114
2496  124
2497  109
2498  100
2499  111
2500  104
2501  101
2502  90
2503  103
2504  118
2505  104
2506  119
2507  105
2508  107
2509  122
2510  116
2511  101
2512  141
2513  106
2514  113
2515  116
2516  116
2517  105
2518  90
2519  121
2520  90
2521  106
2522  110
2523  112
2524  140
2525  107
2526  126
2527  106
2528  117
2529  109
2530  116
2531  127
2532  117
2533  145
2534  113
2535  101
2536  114
2537  110
2538  100
2539  102
2540  108
2541  106
2542  108
2543  96
2544  114
2545  109
2546  111
2547  108
2548  102
2549  107
2550  92
2551  93
2552  112
2553  115
2554  109
2555  96
2556  101
2557  133
2558  113
2559  125
2560  123
2561  123
2562  112
2563  107
2564  108
2565  105
2566  90
2567  115
2568  101
2569  101
2570  95
2571  111
2572  116
2573  116
2574  119
2575  102
2576  104
2577  101
2578  101
2579  109
2580  105
2581  111
2582  98
2583  108
2584  114
2585  99
2586  99
2587  102
2588  108
2589  104
2590  108
2591  105
2592  103
2593  131
2594  115
2595  109
2596  120
2597  119
2598  110
2599  94
2600  116
2601  111
2602  88
2603  110
2604  105
2605  115
2606  101
2607  115
2608  118
2609  108
2610  86
2611  83
2612  95
2613  110
2614  100
2615  103
2616  89
2617  107
2618  92
2619  98
2620  96
2621  96
2622  103
2623  109
2624  107
2625  110
2626  110
2627  100
2628  106
2629  94
2630  104
2631  118
2632  97
2633  96
2634  93
2635  114
2636  110
2637  103
2638  133
2639  104
2640  97
2641  108
2642  107
2643  107
2644  105
2645  104
2646  112
2647  123
2648  104
2649  86
2650  101
2651  109
2652  111
2653  109
2654  93
2655  104
2656  96
2657  108
2658  101
2659  89
2660  106
2661  91
2662  95
2663  98
2664  105
2665  104
2666  89
2667  108
2668  100
2669  93
2670  96
2671  106
2672  92
2673  102
2674  107
2675  92
2676  90
2677  107
2678  104
2679  92
2680  92
2681  115
2682  100
2683  102
2684  103
2685  102
2686  107
2687  98
2688  108
2689  90
2690  113
2691  109
2692  99
2693  95
2694  86
2695  119
2696  104
2697  84
2698  105
2699  116
2700  104
2701  117
2702  84
2703  104
2704  110
2705  99
2706  88
2707  94
2708  90
2709  74
2710  94
2711  90
2712  101
2713  85
2714  90
2715  103
2716  84
2717  97
2718  105
2719  107
2720  102
2721  95
2722  91
2723  88
2724  106
2725  120
2726  100
2727  103
2728  101
2729  83
2730  85
2731  109
2732  76
2733  97
2734  110
2735  99
2736  100
2737  106
2738  116
2739  96
2740  125
2741  115
2742  98
2743  92
2744  109
2745  85
2746  112
2747  105
2748  99
2749  93
2750  92
2751  99
2752  108
2753  95
2754  106
2755  103
2756  104
2757  106
2758  106
2759  102
2760  101
2761  110
2762  99
2763  106
2764  80
2765  84
2766  96
2767  103
2768  105
2769  98
2770  108
2771  111
2772  94
2773  125
2774  124
2775  100
2776  93
2777  107
2778  102
2779  108
2780  124
2781  93
2782  104
2783  104
2784  112
2785  112
2786  103
2787  105
2788  105
2789  102
2790  95
2791  102
2792  83
2793  98
2794  97
2795  110
2796  102
2797  96
2798  97
2799  96
2800  93
2801  95
2802  109
2803  89
2804  71
2805  74
2806  95
2807  108
2808  95
2809  101
2810  109
2811  108
2812  105
2813  100
2814  83
2815  88
2816  81
2817  88
2818  106
2819  76
2820  104
2821  87
2822  104
2823  106
2824  116
2825  106
2826  114
2827  84
2828  90
2829  96
2830  98
2831  105
2832  94
2833  92
2834  101
2835  91
2836  101
2837  88
2838  102
2839  94
2840  112
2841  86
2842  94
2843  93
2844  86
2845  89
2846  86
2847  99
2848  92
2849  90
2850  94
2851  85
2852  88
2853  88
2854  92
2855  89
2856  81
2857  105
2858  90
2859  74
2860  105
2861  103
2862  97
2863  95
2864  94
2865  103
2866  101
2867  86
2868  117
2869  89
2870  90
2871  98
2872  84
2873  68
2874  106
2875  108
2876  79
2877  84
2878  92
2879  82
2880  90
2881  98
2882  91
2883  88
2884  89
2885  84
2886  85
2887  100
2888  92
2889  83
2890  87
2891  94
2892  101
2893  83
2894  86
2895  106
2896  89
2897  79
2898  112
2899  74
2900  85
2901  76
2902  97
2903  91
2904  96
2905  94
2906  91
2907  76
2908  97
2909  120
2910  97
2911  92
2912  88
2913  80
2914  89
2915  103
2916  83
2917  94
2918  109
2919  92
2920  110
2921  92
2922  96
2923  94
2924  77
2925  91
2926  103
2927  83
2928  99
2929  80
2930  80
2931  93
2932  106
2933  82
2934  86
2935  100
2936  86
2937  83
2938  80
2939  81
2940  80
2941  99
2942  97
2943  107
2944  92
2945  94
2946  111
2947  85
2948  88
2949  101
2950  85
2951  98
2952  96
2953  88
2954  95
2955  91
2956  95
2957  97
2958  84
2959  112
2960  78
2961  95
2962  83
2963  89
2964  88
2965  73
2966  95
2967  96
2968  78
2969  97
2970  97
2971  86
2972  115
2973  93
2974  74
2975  104
2976  106
2977  74
2978  79
2979  95
2980  98
2981  81
2982  80
2983  73
2984  100
2985  84
2986  83
2987  85
2988  99
2989  88
2990  100
2991  103
2992  90
2993  91
2994  83
2995  89
2996  89
2997  70
2998  81
2999  94
3000  82
3001  81
3002  88
3003  88
3004  96
3005  80
3006  102
3007  77
3008  97
3009  111
3010  106
3011  84
3012  95
3013  86
3014  100
3015  94
3016  80
3017  86
3018  72
3019  74
3020  99
3021  82
3022  78
3023  94
3024  77
3025  81
3026  85
3027  95
3028  78
3029  102
3030  86
3031  91
3032  83
3033  70
3034  84
3035  66
3036  92
3037  77
3038  69
3039  91
3040  85
3041  82
3042  95
3043  86
3044  113
3045  92
3046  82
3047  90
3048  79
3049  92
3050  86
3051  86
3052  98
3053  78
3054  82
3055  89
3056  97
3057  95
3058  94
3059  82
3060  108
3061  89
3062  73
3063  92
3064  99
3065  93
3066  95
3067  80
3068  93
3069  92
3070  100
3071  104
3072  99
3073  108
3074  96
3075  108
3076  120
3077  111
3078  139
3079  145
3080  148
3081  134
3082  129
3083  126
3084  104
3085  133
3086  86
3087  100
3088  90
3089  91
3090  82
3091  91
3092  88
3093  122
3094  100
3095  86
3096  105
3097  72
3098  87
3099  79
3100  78
3101  89
3102  79
3103  86
3104  71
3105  96
3106  81
3107  78
3108  86
3109  71
3110  89
3111  81
3112  86
3113  84
3114  94
3115  84
3116  90
3117  93
3118  84
3119  90
3120  87
3121  80
3122  82
3123  72
3124  81
3125  97
3126  76
3127  62
3128  76
3129  74
3130  79
3131  90
3132  71
3133  43
3134  66
3135  82
3136  72
3137  83
3138  74
3139  75
3140  92
3141  61
3142  86
3143  71
3144  73
3145  83
3146  78
3147  74
3148  82
3149  91
3150  92
3151  90
3152  104
3153  103
3154  90
3155  79
3156  97
3157  95
3158  94
3159  77
3160  84
3161  117
3162  87
3163  76
3164  80
3165  71
3166  67
3167  63
3168  61
3169  65
3170  56
3171  71
3172  72
3173  68
3174  74
3175  61
3176  84
3177  82
3178  71
3179  72
3180  70
3181  70
3182  75
3183  72
3184  68
3185  75
3186  71
3187  73
3188  72
3189  83
3190  68
3191  72
3192  60
3193  78
3194  56
3195  78
3196  75
3197  78
3198  67
3199  79
3200  59
3201  85
3202  64
3203  77
3204  79
3205  77
3206  64
3207  59
3208  58
3209  88
3210  59
3211  65
3212  85
3213  81
3214  46
3215  80
3216  69
3217  56
3218  69
3219  74
3220  79
3221  85
3222  62
3223  79
3224  66
3225  85
3226  74
3227  63
3228  71
3229  56
3230  79
3231  62
3232  75
3233  65
3234  74
3235  77
3236  80
3237  59
3238  63
3239  65
3240  61
3241  76
3242  61
3243  76
3244  60
3245  52
3246  69
3247  64
3248  69
3249  77
3250  61
3251  63
3252  70
3253  73
3254  61
3255  80
3256  64
3257  87
3258  65
3259  61
3260  68
3261  74
3262  65
3263  69
3264  71
3265  77
3266  84
3267  83
3268  84
3269  64
3270  70
3271  59
3272  58
3273  64
3274  64
3275  57
3276  74
3277  59
3278  76
3279  72
3280  70
3281  76
3282  82
3283  85
3284  82
3285  116
3286  112
3287  110
3288  126
3289  107
3290  125
3291  98
3292  95
3293  94
3294  80
3295  72
3296  79
3297  55
3298  84
3299  68
3300  53
3301  79
3302  56
3303  73
3304  69
3305  65
3306  68
3307  57
3308  65
3309  58
3310  61
3311  62
3312  70
3313  60
3314  65
3315  67
3316  68
3317  63
3318  65
3319  66
3320  62
3321  65
3322  53
3323  58
3324  70
3325  79
3326  55
3327  67
3328  84
3329  69
3330  64
3331  55
3332  61
3333  70
3334  65
3335  55
3336  73
3337  63
3338  65
3339  69
3340  57
3341  63
3342  70
3343  70
3344  70
3345  66
3346  69
3347  68
3348  56
3349  70
3350  66
3351  53
3352  87
3353  74
3354  57
3355  60
3356  61
3357  75
3358  62
3359  66
3360  71
3361  59
3362  78
3363  66
3364  54
3365  64
3366  72
3367  76
3368  55
3369  61
3370  56
3371  64
3372  70
3373  61
3374  68
3375  63
3376  69
3377  66
3378  64
3379  50
3380  72
3381  71
3382  62
3383  77
3384  64
3385  60
3386  70
3387  64
3388  55
3389  65
3390  80
3391  66
3392  49
3393  62
3394  68
3395  63
3396  61
3397  66
3398  71
3399  61
3400  62
3401  61
3402  68
3403  54
3404  61
3405  74
3406  68
3407  58
3408  53
3409  59
3410  50
3411  65
3412  68
3413  73
3414  55
3415  68
3416  65
3417  69
3418  75
3419  57
3420  37
3421  77
3422  72
3423  80
3424  50
3425  63
3426  67
3427  54
3428  73
3429  63
3430  60
3431  62
3432  69
3433  65
3434  60
3435  55
3436  59
3437  67
3438  57
3439  59
3440  59
3441  61
3442  63
3443  46
3444  59
3445  66
3446  59
3447  62
3448  65
3449  53
3450  74
3451  56
3452  61
3453  66
3454  65
3455  65
3456  49
3457  67
3458  66
3459  67
3460  63
3461  59
3462  60
3463  68
3464  63
3465  40
3466  48
3467  52
3468  67
3469  56
3470  62
3471  46
3472  64
3473  71
3474  61
3475  52
3476  72
3477  64
3478  70
3479  47
3480  58
3481  45
3482  65
3483  65
3484  65
3485  71
3486  64
3487  59
3488  62
3489  67
3490  73
3491  60
3492  60
3493  57
3494  62
3495  67
3496  60
3497  73
3498  66
3499  65
3500  51
3501  53
3502  67
3503  57
3504  58
3505  50
3506  58
3507  73
3508  58
3509  63
3510  59
3511  63
3512  63
3513  54
3514  61
3515  53
3516  58
3517  63
3518  64
3519  57
3520  52
3521  59
3522  71
3523  63
3524  70
3525  76
3526  64
3527  61
3528  62
3529  69
3530  58
3531  64
3532  51
3533  59
3534  63
3535  58
3536  48
3537  58
3538  55
3539  51
3540  59
3541  54
3542  50
3543  53
3544  57
3545  67
3546  57
3547  56
3548  54
3549  58
3550  51
3551  54
3552  67
3553  79
3554  67
3555  50
3556  53
3557  63
3558  57
3559  70
3560  49
3561  58
3562  65
3563  57
3564  67
3565  51
3566  54
3567  49
3568  50
3569  71
3570  52
3571  53
3572  57
3573  64
3574  83
3575  69
3576  69
3577  56
3578  46
3579  66
3580  57
3581  55
3582  76
3583  63
3584  67
3585  58
3586  47
3587  54
3588  58
3589  65
3590  49
3591  59
3592  62
3593  65
3594  52
3595  55
3596  58
3597  66
3598  67
3599  68
3600  70
3601  62
3602  64
3603  57
3604  60
3605  48
3606  63
3607  63
3608  57
3609  64
3610  69
3611  61
3612  61
3613  67
3614  63
3615  62
3616  53
3617  57
3618  67
3619  75
3620  56
3621  71
3622  65
3623  58
3624  60
3625  63
3626  58
3627  56
3628  75
3629  61
3630  49
3631  58
3632  47
3633  64
3634  53
3635  54
3636  57
3637  59
3638  63
3639  66
3640  63
3641  71
3642  46
3643  54
3644  46
3645  51
3646  65
3647  47
3648  44
3649  54
3650  51
3651  72
3652  54
3653  48
3654  52
3655  57
3656  42
3657  61
3658  54
3659  60
3660  57
3661  55
3662  50
3663  62
3664  61
3665  40
3666  65
3667  54
3668  52
3669  55
3670  50
3671  44
3672  53
3673  50
3674  64
3675  47
3676  60
3677  49
3678  57
3679  59
3680  66
3681  58
3682  60
3683  48
3684  46
3685  53
3686  60
3687  59
3688  43
3689  61
3690  46
3691  51
3692  71
3693  51
3694  44
3695  51
3696  58
3697  58
3698  46
3699  49
3700  60
3701  56
3702  73
3703  44
3704  57
3705  52
3706  63
3707  60
3708  70
3709  73
3710  68
3711  75
3712  73
3713  75
3714  73
3715  46
3716  71
3717  66
3718  69
3719  60
3720  64
3721  53
3722  56
3723  51
3724  65
3725  58
3726  51
3727  52
3728  61
3729  56
3730  49
3731  55
3732  70
3733  54
3734  51
3735  65
3736  53
3737  55
3738  67
3739  50
3740  47
3741  43
3742  75
3743  70
3744  67
3745  61
3746  48
3747  65
3748  58
3749  71
3750  75
3751  74
3752  73
3753  86
3754  77
3755  58
3756  61
3757  66
3758  55
3759  73
3760  59
3761  60
3762  53
3763  68
3764  78
3765  70
3766  78
3767  67
3768  90
3769  52
3770  72
3771  67
3772  65
3773  54
3774  62
3775  55
3776  47
3777  57
3778  55
3779  46
3780  62
3781  61
3782  55
3783  51
3784  60
3785  69
3786  58
3787  82
3788  53
3789  61
3790  52
3791  54
3792  49
3793  53
3794  65
3795  45
3796  57
3797  44
3798  54
3799  62
3800  46
3801  54
3802  63
3803  57
3804  58
3805  72
3806  53
3807  54
3808  52
3809  63
3810  63
3811  60
3812  52
3813  40
3814  60
3815  48
3816  54
3817  66
3818  50
3819  52
3820  56
3821  48
3822  46
3823  48
3824  55
3825  55
3826  46
3827  42
3828  53
3829  61
3830  67
3831  66
3832  54
3833  54
3834  58
3835  59
3836  63
3837  64
3838  51
3839  61
3840  53
3841  59
3842  55
3843  49
3844  52
3845  62
3846  60
3847  54
3848  53
3849  54
3850  48
3851  46
3852  54
3853  45
3854  57
3855  47
3856  62
3857  50
3858  69
3859  42
3860  49
3861  56
3862  58
3863  67
3864  59
3865  48
3866  48
3867  55
3868  52
3869  54
3870  50
3871  60
3872  50
3873  54
3874  41
3875  62
3876  52
3877  49
3878  56
3879  46
3880  56
3881  46
3882  53
3883  61
3884  61
3885  67
3886  54
3887  51
3888  56
3889  56
3890  55
3891  54
3892  54
3893  55
3894  54
3895  51
3896  60
3897  58
3898  69
3899  70
3900  59
3901  58
3902  60
3903  54
3904  58
3905  63
3906  48
3907  52
3908  51
3909  47
3910  52
3911  45
3912  75
3913  50
3914  66
3915  47
3916  55
3917  51
3918  50
3919  53
3920  55
3921  63
3922  47
3923  62
3924  68
3925  59
3926  64
3927  75
3928  87
3929  85
3930  61
3931  65
3932  67
3933  74
3934  72
3935  63
3936  48
3937  51
3938  57
3939  67
3940  60
3941  62
3942  41
3943  54
3944  49
3945  52
3946  52
3947  52
3948  64
3949  55
3950  57
3951  54
3952  58
3953  65
3954  65
3955  62
3956  57
3957  57
3958  61
3959  70
3960  75
3961  79
3962  75
3963  60
3964  84
3965  98
3966  79
3967  80
3968  68
3969  60
3970  78
3971  89
3972  88
3973  130
3974  139
3975  200
3976  182
3977  224
3978  253
3979  223
3980  211
3981  205
3982  149
3983  112
3984  89
3985  90
3986  80
3987  60
3988  50
3989  56
3990  59
3991  55
3992  39
3993  50
3994  64
3995  55
3996  50
3997  67
3998  43
3999  53
4000  69
4001  64
4002  61
4003  54
4004  55
4005  53
4006  58
4007  52
4008  48
4009  43
4010  45
4011  54
4012  49
4013  53
4014  57
4015  71
4016  56
4017  65
4018  58
4019  50
4020  47
4021  44
4022  59
4023  46
4024  52
4025  40
4026  41
4027  56
4028  51
4029  63
4030  50
4031  54
4032  60
4033  39
4034  49
4035  68
4036  52
4037  62
4038  54
4039  61
4040  67
4041  57
4042  61
4043  51
4044  55
4045  59
4046  44
4047  64
4048  50
4049  45
4050  46
4051  38
4052  43
4053  55
4054  46
4055  58
4056  54
4057  46
4058  53
4059  42
4060  51
4061  50
4062  59
4063  58
4064  58
4065  55
4066  41
4067  59
4068  61
4069  49
4070  68
4071  63
4072  50
4073  66
4074  46
4075  54
4076  57
4077  45
4078  60
4079  58
4080  49
4081  47
4082  73
4083  67
4084  49
4085  53
4086  51
4087  64
4088  66
4089  62
4090  97
4091  118
4092  124
4093  193
4094  237
4095  301
4096  379
4097  511
4098  581
4099  668
4100  672
4101  669
4102  590
4103  514
4104  382
4105  241
4106  189
4107  128
4108  94
4109  75
4110  61
4111  58
4112  48
4113  66
4114  47
4115  49
4116  61
4117  53
4118  52
4119  38
4120  58
4121  67
4122  56
4123  56
4124  49
4125  40
4126  57
4127  53
4128  53
4129  45
4130  58
4131  47
4132  43
4133  60
4134  56
4135  66
4136  63
4137  61
4138  52
4139  57
4140  56
4141  61
4142  57
4143  52
4144  54
4145  49
4146  63
4147  57
4148  57
4149  40
4150  48
4151  55
4152  47
4153  51
4154  47
4155  56
4156  59
4157  51
4158  59
4159  45
4160  44
4161  59
4162  46
4163  53
4164  58
4165  63
4166  55
4167  47
4168  60
4169  51
4170  54
4171  57
4172  55
4173  48
4174  54
4175  58
4176  61
4177  71
4178  63
4179  59
4180  56
4181  69
4182  72
4183  65
4184  67
4185  59
4186  50
4187  56
4188  60
4189  52
4190  51
4191  72
4192  57
4193  66
4194  54
4195  66
4196  66
4197  83
4198  91
4199  120
4200  131
4201  146
4202  159
4203  184
4204  155
4205  129
4206  129
4207  103
4208  98
4209  77
4210  66
4211  58
4212  67
4213  51
4214  45
4215  53
4216  47
4217  58
4218  52
4219  44
4220  51
4221  55
4222  32
4223  64
4224  45
4225  65
4226  66
4227  45
4228  39
4229  49
4230  60
4231  54
4232  50
4233  40
4234  52
4235  44
4236  61
4237  47
4238  51
4239  70
4240  56
4241  54
4242  55
4243  43
4244  47
4245  47
4246  60
4247  58
4248  57
4249  44
4250  51
4251  42
4252  51
4253  41
4254  55
4255  49
4256  49
4257  53
4258  51
4259  52
4260  55
4261  53
4262  43
4263  42
4264  50
4265  35
4266  31
4267  46
4268  40
4269  33
4270  38
4271  37
4272  32
4273  47
4274  33
4275  49
4276  28
4277  42
4278  43
4279  39
4280  47
4281  24
4282  34
4283  38
4284  42
4285  35
4286  35
4287  46
4288  32
4289  40
4290  37
4291  33
4292  35
4293  31
4294  30
4295  41
4296  38
4297  40
4298  33
4299  45
4300  60
4301  51
4302  58
4303  52
4304  54
4305  59
4306  41
4307  51
4308  41
4309  39
4310  42
4311  40
4312  46
4313  41
4314  36
4315  33
4316  44
4317  41
4318  49
4319  30
4320  39
4321  44
4322  28
4323  29
4324  30
4325  37
4326  39
4327  34
4328  36
4329  35
4330  32
4331  29
4332  34
4333  47
4334  29
4335  32
4336  33
4337  43
4338  27
4339  35
4340  35
4341  32
4342  36
4343  32
4344  39
4345  38
4346  38
4347  32
4348  29
4349  33
4350  36
4351  25
4352  35
4353  31
4354  33
4355  45
4356  27
4357  37
4358  36
4359  39
4360  32
4361  42
4362  38
4363  42
4364  29
4365  35
4366  28
4367  34
4368  36
4369  39
4370  41
4371  30
4372  42
4373  39
4374  36
4375  39
4376  38
4377  40
4378  32
4379  28
4380  41
4381  35
4382  27
4383  38
4384  25
4385  37
4386  32
4387  36
4388  41
4389  43
4390  26
4391  36
4392  41
4393  30
4394  44
4395  26
4396  34
4397  30
4398  32
4399  39
4400  44
4401  41
4402  39
4403  41
4404  42
4405  41
4406  35
4407  35
4408  33
4409  36
4410  30
4411  33
4412  35
4413  38
4414  30
4415  31
4416  31
4417  33
4418  26
4419  27
4420  28
4421  29
4422  32
4423  31
4424  22
4425  21
4426  31
4427  37
4428  25
4429  32
4430  38
4431  37
4432  44
4433  45
4434  34
4435  31
4436  50
4437  31
4438  36
4439  34
4440  32
4441  47
4442  27
4443  38
4444  27
4445  42
4446  37
4447  23
4448  28
4449  25
4450  30
4451  38
4452  29
4453  36
4454  31
4455  23
4456  31
4457  25
4458  30
4459  29
4460  24
4461  19
4462  37
4463  31
4464  37
4465  34
4466  28
4467  32
4468  29
4469  27
4470  27
4471  29
4472  26
4473  15
4474  28
4475  19
4476  34
4477  22
4478  15
4479  34
4480  30
4481  42
4482  31
4483  24
4484  31
4485  31
4486  32
4487  34
4488  23
4489  26
4490  36
4491  28
4492  26
4493  32
4494  23
4495  18
4496  21
4497  30
4498  17
4499  26
4500  21
4501  22
4502  23
4503  38
4504  29
4505  28
4506  27
4507  20
4508  31
4509  25
4510  31
4511  28
4512  18
4513  23
4514  27
4515  24
4516  31
4517  28
4518  27
4519  27
4520  25
4521  25
4522  18
4523  22
4524  14
4525  21
4526  27
4527  25
4528  27
4529  36
4530  30
4531  16
4532  43
4533  32
4534  29
4535  28
4536  38
4537  45
4538  37
4539  22
4540  30
4541  40
4542  36
4543  40
4544  40
4545  26
4546  26
4547  23
4548  29
4549  22
4550  34
4551  28
4552  29
4553  19
4554  21
4555  19
4556  26
4557  21
4558  29
4559  25
4560  23
4561  37
4562  25
4563  30
4564  26
4565  23
4566  22
4567  25
4568  22
4569  19
4570  33
4571  20
4572  28
4573  23
4574  31
4575  28
4576  23
4577  23
4578  14
4579  24
4580  31
4581  21
4582  27
4583  23
4584  25
4585  23
4586  29
4587  34
4588  29
4589  25
4590  30
4591  28
4592  26
4593  22
4594  24
4595  26
4596  18
4597  17
4598  24
4599  27
4600  26
4601  29
4602  12
4603  26
4604  21
4605  28
4606  18
4607  23
4608  17
4609  28
4610  21
4611  22
4612  21
4613  29
4614  14
4615  29
4616  30
4617  21
4618  23
4619  29
4620  22
4621  23
4622  23
4623  33
4624  27
4625  19
4626  20
4627  13
4628  20
4629  15
4630  28
4631  20
4632  15
4633  28
4634  25
4635  16
4636  20
4637  21
4638  16
4639  23
4640  28
4641  17
4642  19
4643  20
4644  20
4645  25
4646  26
4647  28
4648  16
4649  20
4650  16
4651  21
4652  19
4653  18
4654  27
4655  26
4656  27
4657  24
4658  29
4659  22
4660  20
4661  26
4662  24
4663  30
4664  26
4665  28
4666  25
4667  23
4668  31
4669  34
4670  25
4671  20
4672  27
4673  14
4674  25
4675  19
4676  26
4677  21
4678  14
4679  24
4680  20
4681  18
4682  25
4683  22
4684  29
4685  38
4686  41
4687  40
4688  49
4689  64
4690  42
4691  46
4692  45
4693  57
4694  37
4695  37
4696  29
4697  34
4698  32
4699  29
4700  37
4701  35
4702  38
4703  45
4704  54
4705  34
4706  42
4707  48
4708  30
4709  43
4710  26
4711  36
4712  19
4713  27
4714  26
4715  24
4716  35
4717  19
4718  18
4719  19
4720  25
4721  29
4722  27
4723  21
4724  35
4725  40
4726  35
4727  33
4728  27
4729  14
4730  34
4731  16
4732  13
4733  26
4734  15
4735  22
4736  27
4737  23
4738  18
4739  10
4740  22
4741  18
4742  33
4743  20
4744  16
4745  18
4746  16
4747  13
4748  14
4749  22
4750  31
4751  17
4752  12
4753  19
4754  15
4755  19
4756  33
4757  20
4758  15
4759  15
4760  14
4761  10
4762  14
4763  14
4764  14
4765  19
4766  15
4767  15
4768  16
4769  13
4770  19
4771  9
4772  17
4773  19
4774  19
4775  18
4776  16
4777  15
4778  16
4779  20
4780  13
4781  33
4782  27
4783  22
4784  25
4785  21
4786  21
4787  30
4788  17
4789  18
4790  14
4791  19
4792  15
4793  16
4794  12
4795  16
4796  18
4797  19
4798  12
4799  20
4800  16
4801  16
4802  17
4803  15
4804  13
4805  20
4806  13
4807  17
4808  15
4809  24
4810  12
4811  12
4812  12
4813  17
4814  25
4815  23
4816  17
4817  8
4818  22
4819  18
4820  15
4821  12
4822  16
4823  17
4824  17
4825  14
4826  14
4827  19
4828  19
4829  19
4830  14
4831  14
4832  14
4833  10
4834  17
4835  10
4836  18
4837  16
4838  19
4839  9
4840  19
4841  18
4842  17
4843  16
4844  15
4845  23
4846  23
4847  26
4848  27
4849  24
4850  36
4851  30
4852  23
4853  18
4854  23
4855  25
4856  16
4857  13
4858  24
4859  12
4860  11
4861  13
4862  14
4863  20
4864  17
4865  17
4866  15
4867  15
4868  21
4869  17
4870  19
4871  15
4872  21
4873  11
4874  20
4875  9
4876  9
4877  9
4878  16
4879  16
4880  20
4881  20
4882  14
4883  12
4884  7
4885  15
4886  18
4887  15
4888  11
4889  17
4890  13
4891  10
4892  19
4893  24
4894  11
4895  14
4896  24
4897  26
4898  21
4899  26
4900  30
4901  24
4902  28
4903  24
4904  35
4905  26
4906  33
4907  37
4908  22
4909  26
4910  20
4911  18
4912  18
4913  24
4914  22
4915  16
4916  32
4917  34
4918  29
4919  25
4920  31
4921  36
4922  45
4923  40
4924  42
4925  30
4926  43
4927  43
4928  46
4929  39
4930  43
4931  24
4932  35
4933  35
4934  22
4935  21
4936  15
4937  17
4938  13
4939  18
4940  14
4941  19
4942  12
4943  18
4944  21
4945  17
4946  18
4947  16
4948  13
4949  14
4950  14
4951  13
4952  22
4953  9
4954  14
4955  12
4956  15
4957  14
4958  11
4959  13
4960  17
4961  17
4962  11
4963  9
4964  22
4965  27
4966  9
4967  14
4968  21
4969  10
4970  16
4971  10
4972  19
4973  14
4974  16
4975  20
4976  16
4977  13
4978  8
4979  17
4980  9
4981  17
4982  14
4983  21
4984  6
4985  17
4986  13
4987  15
4988  11
4989  11
4990  11
4991  11
4992  10
4993  15
4994  14
4995  13
4996  13
4997  12
4998  15
4999  13
5000  12
5001  16
5002  7
5003  15
5004  14
5005  21
5006  10
5007  11
5008  21
5009  9
5010  14
5011  15
5012  17
5013  17
5014  11
5015  16
5016  16
5017  16
5018  20
5019  15
5020  22
5021  22
5022  28
5023  40
5024  45
5025  36
5026  57
5027  51
5028  70
5029  60
5030  43
5031  46
5032  44
5033  38
5034  35
5035  19
5036  17
5037  21
5038  21
5039  15
5040  25
5041  19
5042  16
5043  15
5044  15
5045  12
5046  14
5047  18
5048  15
5049  19
5050  21
5051  10
5052  15
5053  9
5054  12
5055  11
5056  6
5057  18
5058  16
5059  18
5060  9
5061  13
5062  11
5063  19
5064  11
5065  6
5066  20
5067  17
5068  15
5069  13
5070  7
5071  11
5072  8
5073  17
5074  14
5075  7
5076  7
5077  16
5078  8
5079  14
5080  8
5081  18
5082  8
5083  9
5084  13
5085  14
5086  11
5087  8
5088  17
5089  8
5090  12
5091  9
5092  14
5093  14
5094  13
5095  13
5096  9
5097  13
5098  10
5099  13
5100  17
5101  5
5102  7
5103  16
5104  11
5105  11
5106  11
5107  14
5108  15
5109  11
5110  13
5111  15
5112  11
5113  11
5114  14
5115  17
5116  15
5117  14
5118  7
5119  14
5120  13
5121  9
5122  14
5123  11
5124  12
5125  12
5126  22
5127  19
5128  17
5129  17
5130  17
5131  9
5132  9
5133  15
5134  13
5135  13
5136  13
5137  11
5138  10
5139  7
5140  15
5141  19
5142  21
5143  13
5144  10
5145  16
5146  17
5147  19
5148  22
5149  17
5150  18
5151  6
5152  11
5153  19
5154  15
5155  8
5156  16
5157  13
5158  12
5159  15
5160  9
5161  20
5162  14
5163  12
5164  22
5165  14
5166  11
5167  13
5168  10
5169  8
5170  13
5171  13
5172  7
5173  16
5174  12
5175  18
5176  17
5177  11
5178  12
5179  8
5180  7
5181  11
5182  13
5183  14
5184  15
5185  16
5186  10
5187  19
5188  14
5189  13
5190  17
5191  12
5192  13
5193  14
5194  10
5195  15
5196  9
5197  12
5198  11
5199  15
5200  15
5201  18
5202  14
5203  13
5204  18
5205  19
5206  21
5207  15
5208  15
5209  13
5210  16
5211  14
5212  17
5213  14
5214  13
5215  7
5216  16
5217  11
5218  11
5219  12
5220  15
5221  18
5222  17
5223  16
5224  11
5225  13
5226  10
5227  18
5228  11
5229  15
5230  21
5231  16
5232  18
5233  12
5234  11
5235  11
5236  14
5237  18
5238  16
5239  8
5240  12
5241  7
5242  12
5243  18
5244  12
5245  13
5246  16
5247  9
5248  13
5249  15
5250  13
5251  9
5252  16
5253  20
5254  11
5255  13
5256  15
5257  16
5258  9
5259  6
5260  17
5261  13
5262  14
5263  18
5264  6
5265  8
5266  10
5267  8
5268  10
5269  13
5270  13
5271  17
5272  13
5273  7
5274  16
5275  15
5276  18
5277  20
5278  22
5279  16
5280  15
5281  20
5282  18
5283  12
5284  25
5285  13
5286  17
5287  16
5288  16
5289  16
5290  17
5291  17
5292  10
5293  10
5294  19
5295  14
5296  21
5297  21
5298  20
5299  28
5300  28
5301  49
5302  88
5303  85
5304  163
5305  233
5306  299
5307  426
5308  572
5309  719
5310  835
5311  1002
5312  1110
5313  1140
5314  1050
5315  973
5316  894
5317  745
5318  531
5319  396
5320  241
5321  156
5322  84
5323  61
5324  19
5325  22
5326  18
5327  10
5328  8
5329  15
5330  15
5331  5
5332  6
5333  10
5334  13
5335  10
5336  9
5337  11
5338  15
5339  12
5340  12
5341  10
5342  4
5343  5
5344  12
5345  9
5346  7
5347  11
5348  10
5349  12
5350  13
5351  8
5352  9
5353  13
5354  6
5355  8
5356  14
5357  9
5358  11
5359  9
5360  12
5361  9
5362  9
5363  7
5364  10
5365  6
5366  7
5367  7
5368  11
5369  6
5370  5
5371  4
5372  12
5373  16
5374  7
5375  13
5376  14
5377  17
5378  10
5379  6
5380  10
5381  7
5382  8
5383  6
5384  5
5385  9
5386  10
5387  6
5388  14
5389  5
5390  10
5391  8
5392  12
5393  9
5394  10
5395  12
5396  6
5397  4
5398  9
5399  10
5400  2
5401  13
5402  5
5403  8
5404  11
5405  9
5406  6
5407  9
5408  7
5409  7
5410  9
5411  7
5412  14
5413  9
5414  9
5415  13
5416  10
5417  7
5418  7
5419  8
5420  9
5421  11
5422  8
5423  9
5424  8
5425  11
5426  8
5427  6
5428  7
5429  16
5430  7
5431  5
5432  5
5433  8
5434  5
5435  8
5436  8
5437  9
5438  9
5439  5
5440  7
5441  8
5442  7
5443  8
5444  15
5445  6
5446  10
5447  4
5448  7
5449  7
5450  6
5451  7
5452  9
5453  8
5454  8
5455  9
5456  9
5457  11
5458  8
5459  8
5460  6
5461  5
5462  6
5463  5
5464  4
5465  6
5466  8
5467  8
5468  5
5469  7
5470  12
5471  6
5472  5
5473  7
5474  9
5475  8
5476  5
5477  5
5478  10
5479  12
5480  7
5481  6
5482  7
5483  15
5484  4
5485  6
5486  6
5487  9
5488  8
5489  8
5490  7
5491  11
5492  10
5493  6
5494  6
5495  12
5496  10
5497  7
5498  1
5499  6
5500  8
5501  4
5502  5
5503  6
5504  11
5505  10
5506  3
5507  9
5508  15
5509  5
5510  6
5511  12
5512  14
5513  7
5514  8
5515  13
5516  10
5517  2
5518  13
5519  11
5520  11
5521  7
5522  9
5523  8
5524  13
5525  8
5526  7
5527  7
5528  13
5529  5
5530  11
5531  11
5532  7
5533  10
5534  11
5535  5
5536  15
5537  7
5538  8
5539  16
5540  14
5541  8
5542  7
5543  10
5544  4
5545  9
5546  5
5547  6
5548  12
5549  10
5550  10
5551  4
5552  13
5553  3
5554  10
5555  10
5556  13
5557  5
5558  7
5559  5
5560  7
5561  6
5562  7
5563  8
5564  5
5565  13
5566  5
5567  11
5568  10
5569  9
5570  6
5571  4
5572  10
5573  1
5574  7
5575  9
5576  5
5577  2
5578  13
5579  9
5580  7
5581  6
5582  10
5583  11
5584  7
5585  8
5586  5
5587  10
5588  4
5589  11
5590  7
5591  9
5592  8
5593  4
5594  5
5595  6
5596  8
5597  5
5598  12
5599  8
5600  12
5601  10
5602  8
5603  7
5604  11
5605  9
5606  9
5607  8
5608  10
5609  7
5610  7
5611  7
5612  9
5613  10
5614  4
5615  11
5616  13
5617  9
5618  11
5619  7
5620  7
5621  6
5622  8
5623  13
5624  10
5625  12
5626  11
5627  8
5628  10
5629  8
5630  13
5631  8
5632  7
5633  9
5634  5
5635  11
5636  6
5637  13
5638  10
5639  6
5640  10
5641  5
5642  8
5643  8
5644  2
5645  5
5646  4
5647  5
5648  5
5649  6
5650  12
5651  5
5652  6
5653  5
5654  8
5655  6
5656  7
5657  7
5658  6
5659  10
5660  12
5661  4
5662  9
5663  10
5664  15
5665  7
5666  4
5667  5
5668  11
5669  6
5670  11
5671  7
5672  9
5673  7
5674  10
5675  12
5676  4
5677  10
5678  9
5679  5
5680  5
5681  6
5682  4
5683  7
5684  10
5685  8
5686  12
5687  7
5688  6
5689  11
5690  8
5691  7
5692  8
5693  12
5694  3
5695  9
5696  7
5697  6
5698  5
5699  5
5700  6
5701  7
5702  10
5703  5
5704  2
5705  6
5706  3
5707  7
5708  6
5709  3
5710  10
5711  5
5712  6
5713  4
5714  6
5715  10
5716  11
5717  7
5718  5
5719  12
5720  11
5721  9
5722  10
5723  9
5724  6
5725  8
5726  7
5727  7
5728  6
5729  9
5730  8
5731  5
5732  10
5733  10
5734  11
5735  7
5736  8
5737  11
5738  1
5739  9
5740  9
5741  14
5742  10
5743  11
5744  10
5745  11
5746  6
5747  9
5748  9
5749  1
5750  10
5751  12
5752  8
5753  5
5754  6
5755  8
5756  7
5757  5
5758  7
5759  5
5760  7
5761  11
5762  9
5763  8
5764  3
5765  6
5766  6
5767  4
5768  7
5769  6
5770  5
5771  8
5772  6
5773  5
5774  6
5775  6
5776  9
5777  8
5778  10
5779  10
5780  8
5781  6
5782  3
5783  9
5784  4
5785  8
5786  13
5787  6
5788  8
5789  7
5790  7
5791  3
5792  7
5793  6
5794  15
5795  6
5796  9
5797  9
5798  6
5799  7
5800  9
5801  4
5802  8
5803  7
5804  10
5805  6
5806  8
5807  7
5808  6
5809  6
5810  4
5811  14
5812  14
5813  8
5814  7
5815  15
5816  6
5817  5
5818  9
5819  8
5820  9
5821  6
5822  9
5823  7
5824  8
5825  9
5826  10
5827  5
5828  7
5829  8
5830  4
5831  2
5832  6
5833  12
5834  12
5835  5
5836  3
5837  3
5838  8
5839  10
5840  4
5841  7
5842  6
5843  3
5844  7
5845  5
5846  2
5847  9
5848  7
5849  2
5850  7
5851  10
5852  12
5853  7
5854  8
5855  2
5856  7
5857  4
5858  11
5859  4
5860  5
5861  10
5862  6
5863  7
5864  4
5865  7
5866  6
5867  10
5868  6
5869  6
5870  6
5871  4
5872  5
5873  4
5874  11
5875  4
5876  5
5877  4
5878  1
5879  9
5880  9
5881  6
5882  5
5883  5
5884  5
5885  9
5886  7
5887  6
5888  7
5889  7
5890  4
5891  7
5892  5
5893  1
5894  2
5895  8
5896  2
5897  5
5898  4
5899  6
5900  6
5901  7
5902  6
5903  8
5904  5
5905  7
5906  7
5907  6
5908  4
5909  8
5910  5
5911  3
5912  7
5913  6
5914  4
5915  8
5916  11
5917  8
5918  11
5919  8
5920  7
5921  5
5922  9
5923  16
5924  7
5925  7
5926  12
5927  14
5928  14
5929  12
5930  13
5931  17
5932  19
5933  20
5934  11
5935  10
5936  12
5937  12
5938  10
5939  7
5940  10
5941  10
5942  7
5943  5
5944  11
5945  16
5946  11
5947  4
5948  11
5949  12
5950  14
5951  9
5952  7
5953  11
5954  6
5955  11
5956  11
5957  8
5958  10
5959  16
5960  12
5961  7
5962  8
5963  4
5964  2
5965  4
5966  4
5967  10
5968  10
5969  7
5970  5
5971  6
5972  7
5973  6
5974  6
5975  10
5976  10
5977  12
5978  8
5979  6
5980  8
5981  5
5982  8
5983  3
5984  4
5985  9
5986  3
5987  3
5988  4
5989  7
5990  5
5991  9
5992  5
5993  4
5994  10
5995  7
5996  12
5997  8
5998  8
5999  14
6000  3
6001  12
6002  7
6003  9
6004  10
6005  9
6006  9
6007  4
6008  8
6009  6
6010  8
6011  10
6012  4
6013  5
6014  2
6015  5
6016  6
6017  9
6018  9
6019  9
6020  6
6021  6
6022  6
6023  7
6024  8
6025  5
6026  8
6027  7
6028  10
6029  11
6030  9
6031  4
6032  8
6033  6
6034  7
6035  6
6036  6
6037  10
6038  8
6039  9
6040  9
6041  3
6042  6
6043  5
6044  3
6045  8
6046  10
6047  4
6048  4
6049  3
6050  8
6051  8
6052  10
6053  6
6054  15
6055  5
6056  5
6057  10
6058  4
6059  4
6060  7
6061  6
6062  5
6063  7
6064  8
6065  5
6066  6
6067  6
6068  5
6069  8
6070  5
6071  13
6072  6
6073  3
6074  5
6075  11
6076  6
6077  3
6078  3
6079  6
6080  5
6081  4
6082  5
6083  7
6084  9
6085  8
6086  3
6087  6
6088  6
6089  14
6090  13
6091  12
6092  11
6093  8
6094  7
6095  8
6096  5
6097  10
6098  5
6099  2
6100  9
6101  5
6102  7
6103  11
6104  6
6105  7
6106  9
6107  7
6108  4
6109  8
6110  7
6111  7
6112  12
6113  7
6114  7
6115  12
6116  8
6117  3
6118  5
6119  6
6120  14
6121  7
6122  7
6123  9
6124  7
6125  8
6126  7
6127  9
6128  9
6129  5
6130  4
6131  7
6132  11
6133  5
6134  5
6135  5
6136  7
6137  6
6138  9
6139  10
6140  6
6141  4
6142  8
6143  8
6144  3
6145  4
6146  3
6147  6
6148  2
6149  2
6150  5
6151  5
6152  7
6153  7
6154  6
6155  7
6156  5
6157  3
6158  12
6159  6
6160  5
6161  7
6162  6
6163  5
6164  8
6165  5
6166  7
6167  7
6168  4
6169  6
6170  6
6171  5
6172  9
6173  3
6174  14
6175  3
6176  9
6177  4
6178  5
6179  4
6180  4
6181  7
6182  8
6183  8
6184  4
6185  6
6186  3
6187  6
6188  7
6189  5
6190  7
6191  1
6192  7
6193  4
6194  6
6195  12
6196  11
6197  10
6198  12
6199  7
6200  6
6201  5
6202  8
6203  2
6204  7
6205  9
6206  7
6207  4
6208  4
6209  5
6210  3
6211  4
6212  9
6213  7
6214  12
6215  5
6216  2
6217  7
6218  6
6219  12
6220  5
6221  5
6222  11
6223  4
6224  6
6225  3
6226  6
6227  6
6228  9
6229  10
6230  2
6231  5
6232  6
6233  3
6234  6
6235  4
6236  7
6237  8
6238  9
6239  4
6240  5
6241  5
6242  5
6243  7
6244  6
6245  10
6246  9
6247  7
6248  7
6249  4
6250  3
6251  7
6252  9
6253  10
6254  12
6255  11
6256  7
6257  8
6258  6
6259  9
6260  12
6261  4
6262  5
6263  10
6264  5
6265  7
6266  7
6267  7
6268  4
6269  11
6270  5
6271  11
6272  5
6273  8
6274  11
6275  11
6276  8
6277  5
6278  7
6279  13
6280  7
6281  5
6282  6
6283  7
6284  5
6285  7
6286  9
6287  6
6288  5
6289  5
6290  10
6291  7
6292  5
6293  3
6294  5
6295  6
6296  8
6297  5
6298  5
6299  11
6300  11
6301  13
6302  15
6303  15
6304  11
6305  18
6306  17
6307  24
6308  19
6309  25
6310  16
6311  18
6312  13
6313  18
6314  16
6315  8
6316  20
6317  14
6318  12
6319  3
6320  9
6321  7
6322  10
6323  7
6324  7
6325  8
6326  6
6327  12
6328  9
6329  5
6330  6
6331  5
6332  7
6333  7
6334  8
6335  8
6336  8
6337  10
6338  8
6339  8
6340  5
6341  5
6342  8
6343  6
6344  6
6345  2
6346  5
6347  6
6348  4
6349  11
6350  5
6351  8
6352  6
6353  9
6354  3
6355  10
6356  4
6357  8
6358  6
6359  3
6360  9
6361  7
6362  6
6363  3
6364  4
6365  12
6366  5
6367  1
6368  9
6369  5
6370  10
6371  8
6372  1
6373  6
6374  8
6375  6
6376  5
6377  3
6378  11
6379  6
6380  4
6381  5
6382  7
6383  8
6384  6
6385  9
6386  6
6387  6
6388  8
6389  7
6390  5
6391  10
6392  4
6393  5
6394  5
6395  9
6396  4
6397  3
6398  8
6399  6
6400  11
6401  9
6402  6
6403  3
6404  8
6405  4
6406  12
6407  12
6408  4
6409  5
6410  6
6411  2
6412  7
6413  8
6414  4
6415  8
6416  8
6417  3
6418  7
6419  10
6420  2
6421  5
6422  5
6423  7
6424  8
6425  8
6426  3
6427  6
6428  5
6429  5
6430  11
6431  10
6432  8
6433  12
6434  11
6435  5
6436  6
6437  5
6438  8
6439  5
6440  9
6441  4
6442  8
6443  16
6444  7
6445  6
6446  6
6447  3
6448  9
6449  7
6450  7
6451  11
6452  10
6453  9
6454  7
6455  5
6456  5
6457  5
6458  7
6459  2
6460  8
6461  2
6462  8
6463  6
6464  8
6465  8
6466  9
6467  7
6468  6
6469  5
6470  8
6471  6
6472  5
6473  9
6474  7
6475  5
6476  9
6477  6
6478  6
6479  8
6480  5
6481  2
6482  6
6483  11
6484  4
6485  6
6486  8
6487  6
6488  12
6489  5
6490  8
6491  6
6492  1
6493  6
6494  4
6495  7
6496  2
6497  6
6498  4
6499  5
6500  2
6501  11
6502  6
6503  4
6504  6
6505  5
6506  6
6507  7
6508  14
6509  5
6510  6
6511  5
6512  3
6513  9
6514  6
6515  9
6516  10
6517  4
6518  6
6519  9
6520  7
6521  6
6522  6
6523  4
6524  6
6525  7
6526  3
6527  7
6528  14
6529  13
6530  13
6531  9
6532  10
6533  11
6534  16
6535  14
6536  10
6537  17
6538  17
6539  11
6540  9
6541  5
6542  8
6543  18
6544  11
6545  8
6546  10
6547  7
6548  3
6549  6
6550  8
6551  11
6552  6
6553  4
6554  6
6555  9
6556  4
6557  10
6558  7
6559  8
6560  7
6561  8
6562  8
6563  6
6564  3
6565  5
6566  4
6567  6
6568  4
6569  9
6570  3
6571  4
6572  2
6573  4
6574  4
6575  5
6576  9
6577  6
6578  8
6579  3
6580  4
6581  7
6582  4
6583  6
6584  3
6585  5
6586  6
6587  8
6588  6
6589  4
6590  8
6591  7
6592  5
6593  7
6594  8
6595  6
6596  0
6597  4
6598  7
6599  5
6600  4
6601  9
6602  3
6603  3
6604  5
6605  5
6606  1
6607  4
6608  5
6609  5
6610  4
6611  6
6612  8
6613  4
6614  8
6615  9
6616  3
6617  9
6618  6
6619  4
6620  4
6621  6
6622  7
6623  6
6624  6
6625  9
6626  5
6627  3
6628  8
6629  4
6630  5
6631  9
6632  6
6633  6
6634  8
6635  8
6636  5
6637  7
6638  5
6639  3
6640  3
6641  5
6642  8
6643  1
6644  2
6645  6
6646  4
6647  7
6648  4
6649  3
6650  8
6651  6
6652  6
6653  4
6654  2
6655  4
6656  6
6657  4
6658  6
6659  2
6660  2
6661  5
6662  6
6663  3
6664  4
6665  3
6666  10
6667  2
6668  2
6669  10
6670  6
6671  4
6672  11
6673  10
6674  3
6675  3
6676  7
6677  5
6678  4
6679  6
6680  5
6681  4
6682  6
6683  7
6684  9
6685  5
6686  7
6687  5
6688  4
6689  4
6690  6
6691  4
6692  8
6693  10
6694  5
6695  4
6696  5
6697  5
6698  6
6699  2
6700  4
6701  5
6702  1
6703  1
6704  8
6705  7
6706  3
6707  6
6708  7
6709  6
6710  8
6711  2
6712  7
6713  7
6714  5
6715  9
6716  8
6717  1
6718  2
6719  5
6720  4
6721  9
6722  5
6723  3
6724  5
6725  3
6726  6
6727  7
6728  4
6729  5
6730  7
6731  6
6732  8
6733  6
6734  8
6735  5
6736  5
6737  5
6738  6
6739  6
6740  4
6741  5
6742  6
6743  3
6744  5
6745  3
6746  6
6747  5
6748  3
6749  2
6750  2
6751  4
6752  2
6753  4
6754  6
6755  4
6756  3
6757  6
6758  3
6759  11
6760  8
6761  5
6762  3
6763  5
6764  6
6765  5
6766  1
6767  7
6768  3
6769  4
6770  6
6771  8
6772  5
6773  5
6774  6
6775  1
6776  4
6777  8
6778  9
6779  3
6780  6
6781  4
6782  5
6783  3
6784  8
6785  5
6786  5
6787  4
6788  6
6789  6
6790  7
6791  7
6792  4
6793  3
6794  6
6795  9
6796  5
6797  1
6798  3
6799  5
6800  3
6801  0
6802  5
6803  5
6804  7
6805  8
6806  4
6807  5
6808  4
6809  7
6810  3
6811  4
6812  7
6813  5
6814  7
6815  1
6816  7
6817  6
6818  5
6819  2
6820  6
6821  4
6822  10
6823  4
6824  4
6825  7
6826  3
6827  6
6828  4
6829  5
6830  5
6831  7
6832  3
6833  5
6834  5
6835  4
6836  7
6837  3
6838  6
6839  11
6840  1
6841  3
6842  6
6843  5
6844  5
6845  7
6846  4
6847  8
6848  6
6849  1
6850  7
6851  2
6852  3
6853  3
6854  4
6855  5
6856  4
6857  6
6858  2
6859  3
6860  6
6861  4
6862  3
6863  1
6864  4
6865  8
6866  4
6867  4
6868  2
6869  4
6870  5
6871  4
6872  8
6873  3
6874  5
6875  3
6876  10
6877  6
6878  5
6879  4
6880  3
6881  6
6882  4
6883  3
6884  2
6885  4
6886  5
6887  3
6888  5
6889  5
6890  5
6891  3
6892  2
6893  2
6894  7
6895  4
6896  2
6897  3
6898  4
6899  4
6900  4
6901  2
6902  6
6903  4
6904  3
6905  8
6906  7
6907  5
6908  4
6909  3
6910  3
6911  11
6912  5
6913  2
6914  3
6915  2
6916  3
6917  7
6918  3
6919  3
6920  5
6921  6
6922  7
6923  3
6924  2
6925  6
6926  4
6927  6
6928  4
6929  1
6930  4
6931  4
6932  4
6933  3
6934  2
6935  3
6936  2
6937  5
6938  6
6939  5
6940  4
6941  2
6942  7
6943  4
6944  7
6945  2
6946  4
6947  4
6948  5
6949  4
6950  6
6951  5
6952  6
6953  9
6954  5
6955  6
6956  5
6957  2
6958  2
6959  2
6960  3
6961  5
6962  5
6963  6
6964  3
6965  5
6966  3
6967  3
6968  2
6969  6
6970  3
6971  7
6972  5
6973  7
6974  5
6975  5
6976  6
6977  8
6978  1
6979  6
6980  1
6981  4
6982  3
6983  5
6984  1
6985  4
6986  3
6987  7
6988  7
6989  6
6990  3
6991  0
6992  4
6993  4
6994  5
6995  1
6996  6
6997  4
6998  3
6999  4
7000  4
7001  1
7002  3
7003  7
7004  4
7005  4
7006  5
7007  5
7008  3
7009  6
7010  2
7011  6
7012  3
7013  5
7014  1
7015  5
7016  4
7017  8
7018  4
7019  3
7020  1
7021  7
7022  5
7023  3
7024  4
7025  6
7026  5
7027  3
7028  4
7029  6
7030  4
7031  6
7032  4
7033  3
7034  2
7035  3
7036  5
7037  4
7038  4
7039  6
7040  2
7041  3
7042  6
7043  4
7044  8
7045  6
7046  4
7047  4
7048  2
7049  3
7050  6
7051  4
7052  6
7053  5
7054  7
7055  7
7056  4
7057  2
7058  1
7059  4
7060  5
7061  1
7062  6
7063  3
7064  3
7065  4
7066  5
7067  2
7068  5
7069  8
7070  2
7071  0
7072  1
7073  3
7074  4
7075  4
7076  4
7077  4
7078  2
7079  4
7080  5
7081  2
7082  2
7083  5
7084  3
7085  5
7086  3
7087  2
7088  5
7089  4
7090  4
7091  2
7092  2
7093  3
7094  8
7095  0
7096  5
7097  5
7098  4
7099  6
7100  4
7101  3
7102  3
7103  7
7104  1
7105  4
7106  2
7107  2
7108  3
7109  2
7110  1
7111  5
7112  3
7113  2
7114  5
7115  2
7116  7
7117  8
7118  5
7119  3
7120  4
7121  2
7122  6
7123  6
7124  3
7125  4
7126  3
7127  4
7128  4
7129  3
7130  5
7131  5
7132  5
7133  6
7134  1
7135  4
7136  7
7137  6
7138  3
7139  2
7140  5
7141  6
7142  2
7143  1
7144  3
7145  5
7146  5
7147  7
7148  4
7149  1
7150  2
7151  3
7152  3
7153  3
7154  3
7155  2
7156  5
7157  5
7158  2
7159  3
7160  3
7161  4
7162  4
7163  3
7164  6
7165  4
7166  5
7167  2
7168  3
7169  4
7170  7
7171  4
7172  3
7173  3
7174  4
7175  5
7176  4
7177  5
7178  7
7179  1
7180  5
7181  2
7182  2
7183  3
7184  4
7185  4
7186  8
7187  3
7188  3
7189  5
7190  2
7191  2
7192  6
7193  2
7194  2
7195  6
7196  2
7197  2
7198  0
7199  3
7200  4
7201  5
7202  3
7203  2
7204  3
7205  2
7206  7
7207  4
7208  6
7209  3
7210  4
7211  4
7212  5
7213  5
7214  4
7215  7
7216  3
7217  5
7218  3
7219  1
7220  1
7221  4
7222  1
7223  2
7224  2
7225  5
7226  7
7227  2
7228  4
7229  5
7230  6
7231  4
7232  8
7233  6
7234  2
7235  5
7236  3
7237  6
7238  2
7239  2
7240  5
7241  4
7242  2
7243  2
7244  2
7245  6
7246  2
7247  1
7248  1
7249  3
7250  5
7251  3
7252  3
7253  9
7254  6
7255  5
7256  3
7257  4
7258  5
7259  5
7260  6
7261  7
7262  5
7263  7
7264  3
7265  1
7266  4
7267  3
7268  5
7269  1
7270  3
7271  5
7272  3
7273  6
7274  2
7275  3
7276  5
7277  6
7278  5
7279  1
7280  0
7281  3
7282  4
7283  6
7284  2
7285  7
7286  3
7287  5
7288  3
7289  4
7290  2
7291  2
7292  6
7293  1
7294  3
7295  2
7296  3
7297  9
7298  2
7299  7
7300  4
7301  4
7302  2
7303  3
7304  2
7305  5
7306  3
7307  4
7308  2
7309  3
7310  2
7311  7
7312  6
7313  2
7314  3
7315  3
7316  4
7317  2
7318  3
7319  4
7320  3
7321  3
7322  3
7323  3
7324  4
7325  3
7326  6
7327  1
7328  1
7329  5
7330  4
7331  3
7332  2
7333  7
7334  4
7335  5
7336  2
7337  7
7338  3
7339  7
7340  7
7341  5
7342  4
7343  9
7344  5
7345  5
7346  5
7347  5
7348  4
7349  7
7350  3
7351  5
7352  4
7353  2
7354  2
7355  2
7356  0
7357  1
7358  4
7359  5
7360  3
7361  2
7362  3
7363  5
7364  2
7365  5
7366  2
7367  0
7368  3
7369  3
7370  2
7371  2
7372  2
7373  2
7374  2
7375  3
7376  3
7377  5
7378  5
7379  3
7380  3
7381  2
7382  3
7383  8
7384  3
7385  6
7386  5
7387  2
7388  1
7389  5
7390  5
7391  5
7392  3
7393  5
7394  3
7395  5
7396  2
7397  2
7398  2
7399  4
7400  5
7401  1
7402  3
7403  4
7404  8
7405  2
7406  4
7407  4
7408  3
7409  3
7410  0
7411  2
7412  3
7413  0
7414  0
7415  5
7416  5
7417  4
7418  3
7419  7
7420  2
7421  4
7422  1
7423  5
7424  5
7425  8
7426  4
7427  6
7428  4
7429  3
7430  5
7431  4
7432  2
7433  3
7434  2
7435  4
7436  2
7437  1
7438  7
7439  7
7440  6
7441  6
7442  2
7443  4
7444  5
7445  8
7446  9
7447  6
7448  2
7449  5
7450  1
7451  3
7452  6
7453  2
7454  8
7455  5
7456  3
7457  2
7458  4
7459  2
7460  2
7461  3
7462  2
7463  1
7464  3
7465  4
7466  3
7467  0
7468  4
7469  4
7470  2
7471  4
7472  5
7473  5
7474  3
7475  4
7476  2
7477  4
7478  6
7479  4
7480  0
7481  5
7482  2
7483  1
7484  3
7485  4
7486  6
7487  2
7488  5
7489  5
7490  4
7491  1
7492  2
7493  4
7494  6
7495  6
7496  5
7497  2
7498  1
7499  4
7500  3
7501  4
7502  3
7503  1
7504  4
7505  4
7506  3
7507  5
7508  3
7509  4
7510  6
7511  8
7512  3
7513  2
7514  6
7515  5
7516  4
7517  2
7518  7
7519  5
7520  6
7521  4
7522  1
7523  5
7524  5
7525  5
7526  2
7527  6
7528  1
7529  3
7530  3
7531  4
7532  2
7533  1
7534  2
7535  1
7536  4
7537  2
7538  4
7539  4
7540  6
7541  7
7542  6
7543  3
7544  6
7545  8
7546  6
7547  11
7548  5
7549  15
7550  10
7551  10
7552  14
7553  10
7554  7
7555  7
7556  9
7557  9
7558  8
7559  8
7560  6
7561  4
7562  9
7563  6
7564  2
7565  9
7566  2
7567  2
7568  5
7569  1
7570  4
7571  2
7572  4
7573  2
7574  7
7575  4
7576  1
7577  4
7578  4
7579  0
7580  7
7581  2
7582  6
7583  5
7584  3
7585  4
7586  2
7587  2
7588  3
7589  1
7590  2
7591  3
7592  0
7593  4
7594  5
7595  2
7596  1
7597  7
7598  6
7599  1
7600  4
7601  5
7602  3
7603  3
7604  4
7605  1
7606  1
7607  1
7608  3
7609  4
7610  1
7611  8
7612  8
7613  0
7614  3
7615  2
7616  0
7617  2
7618  4
7619  1
7620  3
7621  5
7622  4
7623  4
7624  3
7625  3
7626  4
7627  4
7628  4
7629  4
7630  3
7631  2
7632  1
7633  4
7634  2
7635  3
7636  2
7637  2
7638  3
7639  2
7640  4
7641  1
7642  5
7643  5
7644  3
7645  4
7646  2
7647  2
7648  4
7649  4
7650  4
7651  4
7652  7
7653  2
7654  6
7655  6
7656  2
7657  7
7658  6
7659  1
7660  4
7661  0
7662  5
7663  3
7664  2
7665  2
7666  1
7667  2
7668  2
7669  3
7670  5
7671  3
7672  5
7673  6
7674  4
7675  9
7676  5
7677  6
7678  6
7679  14
7680  10
7681  18
7682  16
7683  31
7684  40
7685  27
7686  39
7687  40
7688  46
7689  68
7690  59
7691  59
7692  50
7693  45
7694  42
7695  27
7696  22
7697  21
7698  13
7699  12
7700  7
7701  6
7702  4
7703  2
7704  0
7705  2
7706  2
7707  5
7708  8
7709  1
7710  5
7711  6
7712  5
7713  2
7714  4
7715  1
7716  0
7717  3
7718  0
7719  5
7720  2
7721  3
7722  3
7723  2
7724  2
7725  3
7726  2
7727  4
7728  4
7729  3
7730  3
7731  2
7732  1
7733  2
7734  2
7735  3
7736  1
7737  4
7738  6
7739  3
7740  3
7741  3
7742  1
7743  1
7744  6
7745  2
7746  5
7747  1
7748  4
7749  3
7750  1
7751  2
7752  1
7753  2
7754  0
7755  2
7756  4
7757  5
7758  3
7759  2
7760  4
7761  4
7762  5
7763  3
7764  1
7765  3
7766  3
7767  1
7768  3
7769  1
7770  4
7771  8
7772  6
7773  3
7774  3
7775  1
7776  1
7777  3
7778  0
7779  3
7780  5
7781  1
7782  1
7783  0
7784  2
7785  1
7786  2
7787  3
7788  1
7789  6
7790  0
7791  4
7792  2
7793  3
7794  2
7795  1
7796  4
7797  2
7798  3
7799  2
7800  3
7801  2
7802  3
7803  3
7804  4
7805  3
7806  4
7807  6
7808  0
7809  2
7810  1
7811  1
7812  3
7813  3
7814  2
7815  1
7816  4
7817  3
7818  2
7819  3
7820  2
7821  4
7822  5
7823  4
7824  2
7825  2
7826  3
7827  3
7828  2
7829  3
7830  2
7831  0
7832  4
7833  3
7834  7
7835  4
7836  1
7837  2
7838  1
7839  4
7840  3
7841  6
7842  3
7843  2
7844  4
7845  3
7846  3
7847  0
7848  7
7849  1
7850  2
7851  4
7852  1
7853  2
7854  3
7855  2
7856  3
7857  3
7858  7
7859  2
7860  2
7861  3
7862  1
7863  3
7864  2
7865  1
7866  2
7867  2
7868  5
7869  5
7870  1
7871  2
7872  4
7873  4
7874  1
7875  3
7876  1
7877  3
7878  3
7879  8
7880  5
7881  4
7882  1
7883  2
7884  5
7885  3
7886  4
7887  6
7888  2
7889  1
7890  1
7891  3
7892  2
7893  2
7894  2
7895  3
7896  4
7897  1
7898  4
7899  5
7900  0
7901  3
7902  3
7903  2
7904  3
7905  3
7906  2
7907  5
7908  6
7909  3
7910  6
7911  5
7912  2
7913  2
7914  5
7915  2
7916  2
7917  5
7918  3
7919  4
7920  5
7921  4
7922  5
7923  4
7924  2
7925  1
7926  4
7927  4
7928  5
7929  2
7930  1
7931  8
7932  7
7933  4
7934  2
7935  8
7936  5
7937  4
7938  9
7939  7
7940  9
7941  11
7942  15
7943  9
7944  10
7945  12
7946  17
7947  15
7948  13
7949  12
7950  9
7951  12
7952  3
7953  4
7954  6
7955  4
7956  3
7957  3
7958  4
7959  6
7960  1
7961  6
7962  1
7963  1
7964  4
7965  2
7966  4
7967  1
7968  1
7969  1
7970  2
7971  1
7972  3
7973  3
7974  8
7975  3
7976  4
7977  5
7978  2
7979  0
7980  3
7981  4
7982  7
7983  3
7984  3
7985  2
7986  3
7987  1
7988  2
7989  4
7990  6
7991  2
7992  3
7993  2
7994  1
7995  4
7996  2
7997  2
7998  0
7999  5
8000  4
8001  3
8002  0
8003  0
8004  1
8005  0
8006  3
8007  3
8008  4
8009  3
8010  0
8011  3
8012  3
8013  4
8014  1
8015  2
8016  6
8017  6
8018  1
8019  0
8020  1
8021  2
8022  7
8023  1
8024  4
8025  6
8026  1
8027  4
8028  3
8029  3
8030  3
8031  3
8032  4
8033  2
8034  2
8035  1
8036  5
8037  2
8038  5
8039  2
8040  2
8041  6
8042  7
8043  5
8044  3
8045  5
8046  0
8047  0
8048  5
8049  3
8050  2
8051  2
8052  8
8053  4
8054  2
8055  4
8056  0
8057  4
8058  3
8059  2
8060  5
8061  4
8062  6
8063  1
8064  3
8065  5
8066  3
8067  2
8068  2
8069  3
8070  1
8071  1
8072  1
8073  5
8074  3
8075  3
8076  2
8077  1
8078  2
8079  6
8080  1
8081  2
8082  1
8083  2
8084  3
8085  0
8086  2
8087  2
8088  2
8089  0
8090  0
8091  1
8092  4
8093  4
8094  5
8095  1
8096  1
8097  2
8098  2
8099  1
8100  3
8101  4
8102  6
8103  1
8104  2
8105  0
8106  3
8107  2
8108  4
8109  4
8110  2
8111  3
8112  3
8113  1
8114  3
8115  1
8116  0
8117  4
8118  2
8119  1
8120  2
8121  4
8122  2
8123  6
8124  4
8125  4
8126  3
8127  2
8128  2
8129  3
8130  1
8131  4
8132  4
8133  4
8134  5
8135  2
8136  5
8137  2
8138  6
8139  4
8140  5
8141  1
8142  0
8143  2
8144  1
8145  3
8146  3
8147  5
8148  4
8149  1
8150  3
8151  3
8152  5
8153  3
8154  1
8155  4
8156  4
8157  3
8158  7
8159  1
8160  5
8161  2
8162  3
8163  7
8164  3
8165  6
8166  5
8167  6
8168  10
8169  8
8170  5
8171  8
8172  6
8173  6
8174  6
8175  3
8176  5
8177  7
8178  3
8179  2
8180  1
8181  4
8182  3
8183  2
8184  4
8185  1
8186  4
8187  7
8188  3
8189  0
8190  2
8191  0
