0  1
1  0
2  0
3  0
4  0
5  0
6  0
7  0
8  0
9  0
10  0
11  0
12  0
13  0
14  0
15  1
16  0
17  0
18  0
19  1
20  0
21  0
22  0
23  0
24  0
25  0
26  0
27  0
28  0
29  0
30  0
31  0
32  0
33  0
34  0
35  0
36  0
37  0
38  0
39  0
40  0
41  0
42  0
43  0
44  0
45  0
46  0
47  0
48  0
49  0
50  0
51  0
52  0
53  0
54  1
55  0
56  0
57  0
58  0
59  0
60  0
61  0
62  0
63  0
64  0
65  0
66  0
67  0
68  0
69  0
70  0
71  0
72  0
73  0
74  0
75  0
76  0
77  0
78  0
79  0
80  0
81  0
82  0
83  0
84  0
85  0
86  0
87  0
88  0
89  0
90  0
91  0
92  0
93  0
94  0
95  0
96  0
97  0
98  0
99  0
100  0
101  0
102  0
103  0
104  0
105  0
106  0
107  0
108  0
109  0
110  0
111  0
112  0
113  0
114  0
115  0
116  0
117  0
118  0
119  0
120  0
121  0
122  0
123  0
124  0
125  0
126  0
127  0
128  0
129  0
130  0
131  0
132  0
133  0
134  0
135  0
136  0
137  0
138  0
139  0
140  0
141  0
142  0
143  0
144  0
145  0
146  0
147  0
148  0
149  0
150  0
151  0
152  0
153  0
154  0
155  0
156  0
157  0
158  0
159  0
160  0
161  0
162  0
163  0
164  0
165  0
166  0
167  0
168  0
169  0
170  0
171  0
172  0
173  0
174  0
175  0
176  0
177  0
178  0
179  0
180  0
181  0
182  0
183  0
184  0
185  0
186  0
187  0
188  0
189  0
190  0
191  0
192  0
193  0
194  0
195  0
196  0
197  0
198  0
199  1
200  0
201  0
202  0
203  0
204  0
205  0
206  0
207  0
208  0
209  0
210  0
211  0
212  0
213  0
214  1
215  0
216  0
217  0
218  0
219  1
220  0
221  0
222  0
223  0
224  0
225  0
226  0
227  0
228  0
229  0
230  0
231  0
232  0
233  0
234  0
235  0
236  0
237  0
238  0
239  0
240  0
241  0
242  0
243  0
244  0
245  0
246  0
247  0
248  0
249  1
250  0
251  1
252  1
253  0
254  1
255  1
256  2
257  0
258  1
259  1
260  1
261  2
262  9
263  3
264  5
265  6
266  4
267  9
268  10
269  11
270  17
271  16
272  10
273  20
274  23
275  23
276  21
277  17
278  20
279  14
280  25
281  31
282  16
283  26
284  22
285  33
286  22
287  29
288  30
289  22
290  26
291  27
292  30
293  33
294  33
295  37
296  35
297  39
298  39
299  31
300  44
301  52
302  38
303  31
304  46
305  34
306  34
307  44
308  44
309  51
310  44
311  35
312  50
313  59
314  48
315  42
316  44
317  51
318  54
319  56
320  50
321  42
322  61
323  51
324  42
325  49
326  54
327  64
328  56
329  47
330  33
331  57
332  64
333  48
334  56
335  60
336  50
337  69
338  42
339  60
340  46
341  49
342  64
343  53
344  58
345  47
346  40
347  46
348  48
349  55
350  46
351  62
352  69
353  45
354  47
355  58
356  55
357  48
358  63
359  55
360  60
361  41
362  68
363  73
364  55
365  51
366  51
367  64
368  50
369  57
370  59
371  60
372  54
373  69
374  59
375  43
376  60
377  59
378  52
379  60
380  55
381  54
382  53
383  64
384  52
385  59
386  56
387  53
388  69
389  52
390  65
391  50
392  57
393  67
394  55
395  53
396  59
397  47
398  49
399  46
400  48
401  62
402  63
403  57
404  62
405  58
406  52
407  51
408  56
409  73
410  50
411  49
412  75
413  56
414  54
415  67
416  59
417  65
418  72
419  63
420  53
421  69
422  69
423  57
424  52
425  47
426  68
427  59
428  57
429  73
430  66
431  59
432  63
433  62
434  71
435  49
436  64
437  63
438  67
439  54
440  52
441  71
442  70
443  68
444  63
445  61
446  50
447  73
448  58
449  63
450  63
451  62
452  67
453  62
454  59
455  58
456  54
457  61
458  68
459  59
460  65
461  55
462  74
463  59
464  56
465  64
466  63
467  65
468  58
469  54
470  54
471  67
472  63
473  72
474  59
475  66
476  67
477  56
478  72
479  67
480  67
481  69
482  73
483  73
484  75
485  55
486  61
487  65
488  60
489  64
490  65
491  72
492  70
493  62
494  77
495  61
496  62
497  60
498  70
499  65
500  76
501  68
502  81
503  85
504  69
505  66
506  62
507  59
508  69
509  73
510  67
511  84
512  66
513  75
514  82
515  80
516  76
517  75
518  67
519  79
520  83
521  77
522  66
523  61
524  72
525  61
526  75
527  53
528  65
529  72
530  70
531  70
532  70
533  82
534  58
535  79
536  69
537  50
538  84
539  90
540  79
541  71
542  88
543  64
544  75
545  66
546  83
547  81
548  73
549  83
550  85
551  75
552  75
553  90
554  82
555  77
556  80
557  83
558  74
559  87
560  66
561  85
562  82
563  78
564  87
565  70
566  77
567  70
568  78
569  72
570  94
571  73
572  93
573  92
574  88
575  66
576  82
577  91
578  76
579  90
580  88
581  85
582  91
583  85
584  92
585  84
586  82
587  88
588  74
589  86
590  82
591  76
592  94
593  96
594  82
595  93
596  97
597  83
598  86
599  101
600  78
601  81
602  98
603  79
604  88
605  105
606  101
607  77
608  74
609  95
610  100
611  100
612  96
613  81
614  87
615  91
616  77
617  87
618  90
619  96
620  76
621  94
622  100
623  90
624  95
625  76
626  80
627  84
628  91
629  101
630  85
631  82
632  86
633  93
634  86
635  80
636  95
637  69
638  87
639  91
640  104
641  107
642  99
643  92
644  107
645  98
646  96
647  99
648  92
649  95
650  99
651  92
652  97
653  93
654  103
655  102
656  91
657  90
658  95
659  84
660  100
661  81
662  89
663  98
664  92
665  87
666  86
667  95
668  101
669  104
670  96
671  98
672  98
673  99
674  114
675  92
676  97
677  98
678  92
679  112
680  103
681  111
682  98
683  101
684  102
685  121
686  135
687  103
688  114
689  106
690  96
691  118
692  110
693  102
694  106
695  102
696  90
697  114
698  106
699  95
700  106
701  117
702  97
703  111
704  97
705  105
706  114
707  106
708  99
709  92
710  118
711  103
712  94
713  113
714  92
715  95
716  111
717  120
718  97
719  106
720  122
721  100
722  128
723  113
724  104
725  121
726  111
727  123
728  111
729  95
730  107
731  121
732  131
733  104
734  98
735  111
736  93
737  100
738  105
739  93
740  111
741  95
742  110
743  112
744  117
745  97
746  122
747  114
748  131
749  123
750  153
751  233
752  383
753  672
754  1285
755  2024
756  2872
757  3485
758  3364
759  2734
760  1800
761  977
762  497
763  235
764  168
765  127
766  113
767  90
768  85
769  84
770  62
771  84
772  83
773  87
774  84
775  82
776  66
777  77
778  80
779  75
780  72
781  79
782  83
783  75
784  75
785  69
786  96
787  95
788  69
789  79
790  89
791  80
792  87
793  65
794  80
795  95
796  89
797  64
798  89
799  85
800  71
801  86
802  78
803  70
804  73
805  63
806  70
807  78
808  83
809  72
810  78
811  74
812  91
813  86
814  95
815  80
816  83
817  81
818  72
819  72
820  70
821  84
822  92
823  88
824  58
825  67
826  86
827  61
828  92
829  86
830  73
831  56
832  80
833  63
834  70
835  71
836  70
837  81
838  76
839  67
840  96
841  73
842  72
843  83
844  83
845  79
846  80
847  69
848  70
849  74
850  84
851  70
852  74
853  84
854  78
855  67
856  71
857  64
858  72
859  68
860  74
861  71
862  74
863  70
864  62
865  76
866  69
867  62
868  60
869  84
870  70
871  70
872  74
873  64
874  70
875  57
876  77
877  73
878  73
879  72
880  70
881  66
882  58
883  72
884  72
885  82
886  66
887  65
888  77
889  79
890  68
891  59
892  78
893  64
894  71
895  81
896  89
897  78
898  82
899  71
900  88
901  66
902  73
903  69
904  59
905  80
906  67
907  78
908  63
909  58
910  66
911  46
912  57
913  65
914  71
915  76
916  68
917  69
918  68
919  65
920  70
921  78
922  54
923  66
924  66
925  70
926  70
927  74
928  66
929  68
930  78
931  63
932  70
933  81
934  67
935  88
936  62
937  88
938  60
939  84
940  60
941  63
942  92
943  70
944  78
945  57
946  65
947  62
948  59
949  64
950  69
951  75
952  74
953  67
954  58
955  57
956  67
957  57
958  68
959  55
960  59
961  77
962  72
963  63
964  59
965  70
966  65
967  72
968  73
969  64
970  50
971  57
972  76
973  64
974  68
975  70
976  75
977  71
978  63
979  73
980  62
981  62
982  60
983  70
984  65
985  71
986  65
987  60
988  66
989  77
990  76
991  66
992  66
993  60
994  57
995  64
996  59
997  64
998  62
999  72
1000  51
1001  75
1002  59
1003  62
1004  58
1005  67
1006  74
1007  62
1008  58
1009  69
1010  70
1011  69
1012  64
1013  68
1014  70
1015  60
1016  65
1017  76
1018  72
1019  64
1020  71
1021  70
1022  61
1023  68
1024  69
1025  65
1026  74
1027  67
1028  58
1029  77
1030  81
1031  57
1032  66
1033  64
1034  56
1035  72
1036  66
1037  66
1038  57
1039  68
1040  62
1041  58
1042  67
1043  61
1044  61
1045  69
1046  59
1047  82
1048  63
1049  61
1050  52
1051  56
1052  70
1053  57
1054  49
1055  66
1056  67
1057  64
1058  68
1059  64
1060  69
1061  77
1062  65
1063  59
1064  66
1065  72
1066  69
1067  50
1068  67
1069  55
1070  52
1071  63
1072  63
1073  66
1074  70
1075  63
1076  80
1077  73
1078  63
1079  68
1080  59
1081  74
1082  81
1083  48
1084  47
1085  53
1086  66
1087  53
1088  69
1089  68
1090  54
1091  66
1092  68
1093  59
1094  65
1095  55
1096  60
1097  73
1098  66
1099  78
1100  53
1101  79
1102  67
1103  69
1104  64
1105  50
1106  55
1107  57
1108  69
1109  54
1110  55
1111  58
1112  68
1113  59
1114  59
1115  53
1116  64
1117  57
1118  64
1119  59
1120  48
1121  62
1122  64
1123  66
1124  63
1125  63
1126  56
1127  69
1128  63
1129  51
1130  56
1131  50
1132  56
1133  56
1134  63
1135  65
1136  77
1137  70
1138  61
1139  67
1140  62
1141  52
1142  52
1143  50
1144  59
1145  64
1146  66
1147  57
1148  42
1149  52
1150  57
1151  63
1152  45
1153  65
1154  55
1155  54
1156  47
1157  52
1158  63
1159  62
1160  54
1161  51
1162  58
1163  45
1164  54
1165  59
1166  40
1167  51
1168  46
1169  57
1170  65
1171  47
1172  54
1173  63
1174  58
1175  62
1176  63
1177  39
1178  52
1179  47
1180  46
1181  61
1182  48
1183  48
1184  45
1185  52
1186  47
1187  45
1188  43
1189  51
1190  62
1191  41
1192  56
1193  44
1194  51
1195  50
1196  58
1197  59
1198  43
1199  49
1200  38
1201  43
1202  50
1203  49
1204  47
1205  50
1206  48
1207  59
1208  59
1209  50
1210  43
1211  54
1212  56
1213  50
1214  49
1215  45
1216  56
1217  49
1218  36
1219  53
1220  41
1221  49
1222  35
1223  51
1224  53
1225  41
1226  57
1227  43
1228  55
1229  47
1230  46
1231  48
1232  40
1233  40
1234  46
1235  35
1236  42
1237  40
1238  65
1239  46
1240  50
1241  48
1242  49
1243  48
1244  41
1245  59
1246  47
1247  51
1248  44
1249  46
1250  43
1251  35
1252  38
1253  49
1254  52
1255  53
1256  49
1257  46
1258  44
1259  38
1260  48
1261  46
1262  40
1263  32
1264  44
1265  43
1266  31
1267  49
1268  36
1269  48
1270  48
1271  42
1272  45
1273  40
1274  43
1275  41
1276  30
1277  54
1278  44
1279  43
1280  52
1281  33
1282  44
1283  39
1284  38
1285  55
1286  33
1287  53
1288  43
1289  40
1290  35
1291  52
1292  50
1293  55
1294  48
1295  34
1296  56
1297  47
1298  42
1299  46
1300  43
1301  38
1302  42
1303  45
1304  50
1305  54
1306  38
1307  44
1308  38
1309  50
1310  31
1311  44
1312  31
1313  37
1314  39
1315  35
1316  35
1317  39
1318  36
1319  42
1320  51
1321  38
1322  49
1323  37
1324  43
1325  60
1326  26
1327  43
1328  44
1329  51
1330  37
1331  48
1332  35
1333  40
1334  29
1335  36
1336  50
1337  37
1338  46
1339  41
1340  35
1341  34
1342  26
1343  35
1344  38
1345  39
1346  27
1347  38
1348  38
1349  39
1350  41
1351  37
1352  38
1353  45
1354  39
1355  39
1356  38
1357  37
1358  40
1359  50
1360  36
1361  42
1362  48
1363  45
1364  48
1365  44
1366  50
1367  52
1368  55
1369  57
1370  48
1371  58
1372  64
1373  28
1374  39
1375  37
1376  36
1377  37
1378  48
1379  49
1380  32
1381  42
1382  53
1383  49
1384  39
1385  46
1386  39
1387  42
1388  34
1389  41
1390  52
1391  40
1392  43
1393  60
1394  92
1395  131
1396  237
1397  353
1398  453
1399  479
1400  518
1401  406
1402  302
1403  181
1404  96
1405  68
1406  40
1407  34
1408  34
1409  41
1410  29
1411  32
1412  35
1413  40
1414  32
1415  26
1416  41
1417  33
1418  26
1419  35
1420  38
1421  35
1422  33
1423  33
1424  32
1425  33
1426  34
1427  38
1428  28
1429  49
1430  25
1431  28
1432  42
1433  31
1434  36
1435  43
1436  27
1437  30
1438  44
1439  31
1440  34
1441  41
1442  28
1443  31
1444  24
1445  39
1446  37
1447  29
1448  34
1449  25
1450  26
1451  36
1452  29
1453  30
1454  30
1455  22
1456  37
1457  39
1458  22
1459  21
1460  31
1461  24
1462  28
1463  41
1464  29
1465  31
1466  33
1467  33
1468  29
1469  39
1470  36
1471  38
1472  36
1473  26
1474  35
1475  32
1476  28
1477  24
1478  31
1479  32
1480  31
1481  35
1482  27
1483  25
1484  29
1485  28
1486  33
1487  31
1488  31
1489  41
1490  35
1491  31
1492  37
1493  34
1494  32
1495  28
1496  28
1497  26
1498  37
1499  25
1500  25
1501  35
1502  32
1503  31
1504  26
1505  36
1506  40
1507  20
1508  24
1509  31
1510  21
1511  33
1512  27
1513  29
1514  29
1515  26
1516  25
1517  32
1518  31
1519  40
1520  29
1521  36
1522  26
1523  36
1524  37
1525  25
1526  35
1527  20
1528  33
1529  35
1530  27
1531  33
1532  28
1533  37
1534  31
1535  39
1536  26
1537  34
1538  29
1539  27
1540  30
1541  38
1542  26
1543  24
1544  23
1545  25
1546  34
1547  27
1548  29
1549  34
1550  24
1551  24
1552  32
1553  21
1554  29
1555  32
1556  37
1557  33
1558  28
1559  35
1560  19
1561  38
1562  23
1563  26
1564  34
1565  30
1566  21
1567  25
1568  37
1569  36
1570  30
1571  37
1572  34
1573  30
1574  32
1575  30
1576  29
1577  28
1578  21
1579  32
1580  22
1581  29
1582  24
1583  24
1584  29
1585  34
1586  27
1587  31
1588  38
1589  29
1590  29
1591  33
1592  18
1593  17
1594  29
1595  23
1596  28
1597  32
1598  27
1599  20
1600  22
1601  29
1602  25
1603  30
1604  31
1605  31
1606  33
1607  35
1608  24
1609  25
1610  26
1611  22
1612  27
1613  36
1614  21
1615  27
1616  26
1617  18
1618  35
1619  23
1620  22
1621  31
1622  30
1623  28
1624  34
1625  32
1626  24
1627  26
1628  28
1629  27
1630  26
1631  16
1632  21
1633  31
1634  32
1635  27
1636  26
1637  30
1638  22
1639  33
1640  31
1641  30
1642  19
1643  16
1644  29
1645  27
1646  17
1647  29
1648  18
1649  27
1650  26
1651  18
1652  32
1653  23
1654  22
1655  35
1656  31
1657  29
1658  41
1659  37
1660  43
1661  42
1662  53
1663  58
1664  55
1665  54
1666  41
1667  50
1668  43
1669  32
1670  26
1671  33
1672  27
1673  27
1674  33
1675  28
1676  31
1677  29
1678  21
1679  30
1680  37
1681  23
1682  28
1683  27
1684  28
1685  19
1686  25
1687  30
1688  33
1689  22
1690  30
1691  28
1692  30
1693  20
1694  25
1695  17
1696  17
1697  23
1698  29
1699  23
1700  11
1701  30
1702  31
1703  28
1704  25
1705  17
1706  18
1707  25
1708  25
1709  30
1710  22
1711  28
1712  20
1713  24
1714  28
1715  25
1716  26
1717  16
1718  22
1719  23
1720  15
1721  19
1722  27
1723  24
1724  24
1725  24
1726  22
1727  25
1728  18
1729  22
1730  19
1731  28
1732  20
1733  22
1734  26
1735  19
1736  18
1737  33
1738  23
1739  21
1740  27
1741  23
1742  12
1743  17
1744  33
1745  31
1746  27
1747  26
1748  30
1749  24
1750  27
1751  30
1752  19
1753  19
1754  28
1755  24
1756  30
1757  21
1758  32
1759  22
1760  24
1761  18
1762  25
1763  30
1764  13
1765  27
1766  27
1767  20
1768  28
1769  19
1770  21
1771  19
1772  25
1773  19
1774  24
1775  15
1776  23
1777  20
1778  25
1779  26
1780  29
1781  29
1782  30
1783  22
1784  24
1785  23
1786  18
1787  23
1788  24
1789  19
1790  25
1791  24
1792  23
1793  17
1794  20
1795  19
1796  22
1797  16
1798  19
1799  23
1800  26
1801  26
1802  24
1803  25
1804  25
1805  24
1806  24
1807  25
1808  24
1809  23
1810  29
1811  24
1812  30
1813  14
1814  21
1815  22
1816  22
1817  33
1818  22
1819  26
1820  18
1821  22
1822  18
1823  19
1824  17
1825  23
1826  32
1827  23
1828  21
1829  21
1830  25
1831  23
1832  29
1833  21
1834  21
1835  24
1836  18
1837  16
1838  28
1839  35
1840  30
1841  25
1842  32
1843  33
1844  24
1845  33
1846  19
1847  24
1848  20
1849  21
1850  26
1851  25
1852  26
1853  17
1854  23
1855  19
1856  14
1857  27
1858  15
1859  27
1860  17
1861  23
1862  24
1863  17
1864  26
1865  21
1866  21
1867  17
1868  27
1869  16
1870  20
1871  24
1872  35
1873  19
1874  20
1875  19
1876  21
1877  22
1878  27
1879  30
1880  16
1881  28
1882  24
1883  19
1884  23
1885  27
1886  18
1887  28
1888  32
1889  16
1890  26
1891  28
1892  21
1893  23
1894  16
1895  21
1896  20
1897  21
1898  17
1899  21
1900  22
1901  22
1902  20
1903  22
1904  32
1905  23
1906  24
1907  39
1908  46
1909  79
1910  154
1911  296
1912  451
1913  633
1914  854
1915  932
1916  969
1917  858
1918  782
1919  487
1920  300
1921  172
1922  70
1923  42
1924  29
1925  30
1926  22
1927  19
1928  20
1929  12
1930  21
1931  19
1932  28
1933  17
1934  21
1935  25
1936  24
1937  18
1938  19
1939  22
1940  12
1941  26
1942  25
1943  17
1944  18
1945  24
1946  21
1947  20
1948  21
1949  16
1950  18
1951  31
1952  25
1953  48
1954  49
1955  37
1956  33
1957  29
1958  30
1959  28
1960  27
1961  10
1962  15
1963  14
1964  22
1965  23
1966  18
1967  20
1968  18
1969  17
1970  20
1971  21
1972  16
1973  13
1974  13
1975  21
1976  18
1977  14
1978  21
1979  21
1980  17
1981  22
1982  21
1983  21
1984  23
1985  22
1986  20
1987  11
1988  16
1989  14
1990  15
1991  23
1992  16
1993  16
1994  16
1995  18
1996  21
1997  9
1998  16
1999  13
2000  14
2001  18
2002  26
2003  10
2004  24
2005  14
2006  20
2007  19
2008  18
2009  13
2010  19
2011  12
2012  15
2013  24
2014  17
2015  11
2016  20
2017  15
2018  18
2019  14
2020  21
2021  13
2022  19
2023  15
2024  20
2025  23
2026  22
2027  18
2028  31
2029  26
2030  33
2031  30
2032  28
2033  41
2034  37
2035  36
2036  40
2037  44
2038  37
2039  30
2040  34
2041  36
2042  20
2043  15
2044  21
2045  25
2046  17
2047  13
2048  22
2049  16
2050  16
2051  12
2052  20
2053  11
2054  17
2055  12
2056  16
2057  15
2058  16
2059  16
2060  13
2061  13
2062  13
2063  20
2064  18
2065  18
2066  11
2067  21
2068  19
2069  23
2070  10
2071  22
2072  17
2073  19
2074  18
2075  13
2076  14
2077  14
2078  22
2079  13
2080  17
2081  24
2082  20
2083  14
2084  22
2085  14
2086  13
2087  13
2088  22
2089  17
2090  16
2091  12
2092  13
2093  17
2094  6
2095  13
2096  20
2097  13
2098  20
2099  19
2100  13
2101  14
2102  19
2103  17
2104  15
2105  7
2106  12
2107  11
2108  15
2109  15
2110  11
2111  19
2112  15
2113  15
2114  12
2115  19
2116  10
2117  16
2118  19
2119  15
2120  22
2121  12
2122  17
2123  15
2124  22
2125  20
2126  10
2127  14
2128  18
2129  22
2130  16
2131  15
2132  13
2133  15
2134  20
2135  14
2136  20
2137  16
2138  15
2139  16
2140  15
2141  16
2142  12
2143  14
2144  18
2145  9
2146  12
2147  16
2148  15
2149  27
2150  8
2151  17
2152  12
2153  17
2154  17
2155  18
2156  23
2157  16
2158  9
2159  13
2160  5
2161  12
2162  19
2163  13
2164  21
2165  12
2166  21
2167  12
2168  15
2169  19
2170  18
2171  11
2172  19
2173  14
2174  17
2175  17
2176  14
2177  18
2178  8
2179  14
2180  16
2181  17
2182  16
2183  16
2184  21
2185  13
2186  20
2187  17
2188  23
2189  22
2190  15
2191  10
2192  17
2193  12
2194  15
2195  11
2196  17
2197  13
2198  19
2199  14
2200  21
2201  12
2202  21
2203  11
2204  24
2205  7
2206  21
2207  14
2208  16
2209  6
2210  15
2211  15
2212  20
2213  14
2214  19
2215  14
2216  16
2217  14
2218  15
2219  16
2220  22
2221  11
2222  13
2223  16
2224  16
2225  27
2226  9
2227  13
2228  13
2229  15
2230  18
2231  13
2232  23
2233  15
2234  17
2235  16
2236  17
2237  12
2238  20
2239  13
2240  15
2241  22
2242  12
2243  19
2244  17
2245  22
2246  21
2247  14
2248  12
2249  6
2250  12
2251  21
2252  23
2253  18
2254  18
2255  26
2256  31
2257  33
2258  61
2259  55
2260  61
2261  74
2262  75
2263  64
2264  64
2265  41
2266  27
2267  29
2268  16
2269  19
2270  17
2271  13
2272  12
2273  8
2274  14
2275  12
2276  23
2277  9
2278  11
2279  18
2280  12
2281  17
2282  12
2283  11
2284  13
2285  21
2286  12
2287  17
2288  18
2289  11
2290  21
2291  15
2292  11
2293  16
2294  10
2295  12
2296  8
2297  13
2298  11
2299  16
2300  15
2301  19
2302  25
2303  20
2304  21
2305  19
2306  12
2307  16
2308  16
2309  17
2310  12
2311  17
2312  13
2313  15
2314  15
2315  12
2316  16
2317  14
2318  21
2319  10
2320  12
2321  14
2322  16
2323  13
2324  14
2325  15
2326  15
2327  14
2328  11
2329  19
2330  23
2331  14
2332  19
2333  13
2334  8
2335  17
2336  22
2337  15
2338  17
2339  15
2340  18
2341  16
2342  18
2343  20
2344  16
2345  16
2346  13
2347  22
2348  24
2349  15
2350  16
2351  13
2352  13
2353  14
2354  13
2355  16
2356  19
2357  15
2358  17
2359  16
2360  17
2361  10
2362  16
2363  5
2364  14
2365  13
2366  13
2367  19
2368  14
2369  11
2370  17
2371  17
2372  8
2373  17
2374  19
2375  17
2376  14
2377  9
2378  10
2379  15
2380  8
2381  11
2382  18
2383  22
2384  27
2385  25
2386  16
2387  19
2388  9
2389  11
2390  14
2391  11
2392  22
2393  17
2394  16
2395  14
2396  20
2397  17
2398  14
2399  10
2400  15
2401  17
2402  10
2403  12
2404  15
2405  13
2406  24
2407  15
2408  16
2409  13
2410  15
2411  12
2412  11
2413  16
2414  19
2415  15
2416  18
2417  16
2418  19
2419  21
2420  24
2421  14
2422  16
2423  12
2424  22
2425  26
2426  28
2427  35
2428  57
2429  69
2430  69
2431  77
2432  76
2433  77
2434  66
2435  49
2436  41
2437  22
2438  29
2439  19
2440  19
2441  17
2442  16
2443  10
2444  11
2445  12
2446  11
2447  17
2448  7
2449  12
2450  13
2451  12
2452  14
2453  11
2454  13
2455  19
2456  9
2457  13
2458  14
2459  15
2460  15
2461  10
2462  12
2463  10
2464  12
2465  21
2466  16
2467  18
2468  13
2469  15
2470  9
2471  10
2472  16
2473  18
2474  9
2475  23
2476  27
2477  8
2478  20
2479  9
2480  10
2481  9
2482  12
2483  7
2484  13
2485  11
2486  14
2487  14
2488  15
2489  22
2490  10
2491  14
2492  15
2493  15
2494  12
2495  20
2496  12
2497  19
2498  13
2499  13
2500  17
2501  17
2502  11
2503  11
2504  17
2505  11
2506  16
2507  14
2508  11
2509  17
2510  23
2511  23
2512  18
2513  7
2514  13
2515  12
2516  18
2517  8
2518  13
2519  14
2520  19
2521  21
2522  15
2523  12
2524  18
2525  12
2526  18
2527  12
2528  16
2529  14
2530  16
2531  18
2532  18
2533  15
2534  7
2535  15
2536  24
2537  11
2538  15
2539  7
2540  12
2541  15
2542  18
2543  11
2544  10
2545  23
2546  14
2547  11
2548  11
2549  11
2550  10
2551  9
2552  15
2553  8
2554  14
2555  11
2556  12
2557  13
2558  12
2559  14
2560  13
2561  8
2562  8
2563  10
2564  13
2565  16
2566  19
2567  14
2568  8
2569  15
2570  20
2571  15
2572  12
2573  21
2574  15
2575  9
2576  14
2577  15
2578  9
2579  9
2580  11
2581  11
2582  10
2583  20
2584  13
2585  9
2586  14
2587  20
2588  12
2589  16
2590  16
2591  23
2592  15
2593  11
2594  12
2595  9
2596  10
2597  15
2598  18
2599  13
2600  15
2601  20
2602  7
2603  25
2604  10
2605  16
2606  19
2607  24
2608  10
2609  18
2610  18
2611  10
2612  18
2613  7
2614  10
2615  18
2616  15
2617  17
2618  13
2619  16
2620  16
2621  12
2622  15
2623  13
2624  10
2625  12
2626  11
2627  14
2628  9
2629  16
2630  16
2631  14
2632  13
2633  21
2634  16
2635  12
2636  14
2637  21
2638  12
2639  10
2640  13
2641  14
2642  23
2643  10
2644  12
2645  10
2646  14
2647  11
2648  4
2649  21
2650  19
2651  14
2652  18
2653  17
2654  17
2655  14
2656  13
2657  18
2658  17
2659  19
2660  12
2661  20
2662  22
2663  18
2664  29
2665  20
2666  10
2667  18
2668  16
2669  16
2670  10
2671  13
2672  16
2673  18
2674  16
2675  12
2676  5
2677  10
2678  14
2679  20
2680  6
2681  9
2682  12
2683  18
2684  14
2685  15
2686  24
2687  14
2688  15
2689  16
2690  15
2691  16
2692  14
2693  13
2694  13
2695  19
2696  15
2697  12
2698  13
2699  11
2700  20
2701  12
2702  9
2703  15
2704  9
2705  13
2706  14
2707  10
2708  21
2709  12
2710  9
2711  12
2712  11
2713  17
2714  12
2715  10
2716  10
2717  11
2718  11
2719  8
2720  24
2721  11
2722  17
2723  12
2724  17
2725  10
2726  16
2727  12
2728  11
2729  15
2730  11
2731  19
2732  13
2733  7
2734  13
2735  13
2736  18
2737  18
2738  18
2739  10
2740  19
2741  19
2742  16
2743  16
2744  14
2745  16
2746  10
2747  15
2748  11
2749  7
2750  15
2751  14
2752  13
2753  12
2754  14
2755  10
2756  16
2757  14
2758  16
2759  17
2760  15
2761  16
2762  12
2763  16
2764  10
2765  14
2766  18
2767  14
2768  14
2769  26
2770  16
2771  18
2772  16
2773  17
2774  17
2775  13
2776  20
2777  19
2778  18
2779  24
2780  22
2781  18
2782  17
2783  16
2784  21
2785  15
2786  16
2787  14
2788  25
2789  12
2790  8
2791  18
2792  11
2793  17
2794  10
2795  9
2796  7
2797  16
2798  13
2799  10
2800  15
2801  13
2802  8
2803  8
2804  17
2805  10
2806  18
2807  7
2808  11
2809  18
2810  12
2811  17
2812  15
2813  20
2814  18
2815  9
2816  14
2817  14
2818  20
2819  16
2820  12
2821  16
2822  15
2823  20
2824  13
2825  16
2826  9
2827  16
2828  21
2829  15
2830  18
2831  21
2832  9
2833  17
2834  17
2835  22
2836  19
2837  15
2838  13
2839  10
2840  12
2841  19
2842  16
2843  17
2844  16
2845  13
2846  16
2847  15
2848  14
2849  14
2850  17
2851  13
2852  16
2853  12
2854  18
2855  16
2856  16
2857  13
2858  14
2859  21
2860  20
2861  23
2862  19
2863  19
2864  11
2865  8
2866  23
2867  9
2868  11
2869  12
2870  17
2871  18
2872  12
2873  15
2874  15
2875  13
2876  15
2877  17
2878  14
2879  11
2880  14
2881  14
2882  12
2883  19
2884  10
2885  15
2886  13
2887  11
2888  20
2889  14
2890  17
2891  11
2892  10
2893  11
2894  7
2895  16
2896  6
2897  17
2898  16
2899  11
2900  15
2901  17
2902  8
2903  13
2904  20
2905  16
2906  16
2907  11
2908  12
2909  16
2910  12
2911  14
2912  14
2913  16
2914  9
2915  7
2916  14
2917  18
2918  13
2919  21
2920  11
2921  11
2922  15
2923  14
2924  15
2925  14
2926  20
2927  12
2928  13
2929  15
2930  25
2931  14
2932  11
2933  12
2934  13
2935  20
2936  13
2937  18
2938  9
2939  14
2940  14
2941  10
2942  14
2943  10
2944  15
2945  10
2946  11
2947  10
2948  10
2949  21
2950  16
2951  13
2952  5
2953  10
2954  5
2955  11
2956  11
2957  17
2958  14
2959  15
2960  17
2961  16
2962  11
2963  14
2964  19
2965  8
2966  10
2967  11
2968  16
2969  4
2970  12
2971  11
2972  12
2973  8
2974  12
2975  18
2976  13
2977  14
2978  9
2979  10
2980  10
2981  24
2982  19
2983  11
2984  18
2985  12
2986  9
2987  14
2988  12
2989  11
2990  14
2991  16
2992  14
2993  16
2994  11
2995  19
2996  18
2997  11
2998  16
2999  17
3000  13
3001  11
3002  21
3003  19
3004  16
3005  8
3006  13
3007  19
3008  13
3009  10
3010  11
3011  17
3012  6
3013  13
3014  16
3015  9
3016  15
3017  11
3018  11
3019  16
3020  14
3021  25
3022  14
3023  9
3024  15
3025  17
3026  14
3027  15
3028  10
3029  16
3030  18
3031  8
3032  19
3033  12
3034  18
3035  21
3036  11
3037  11
3038  19
3039  17
3040  20
3041  11
3042  8
3043  17
3044  17
3045  15
3046  20
3047  26
3048  11
3049  14
3050  19
3051  18
3052  19
3053  23
3054  20
3055  25
3056  21
3057  16
3058  17
3059  14
3060  22
3061  17
3062  12
3063  13
3064  6
3065  13
3066  8
3067  13
3068  18
3069  17
3070  20
3071  21
3072  9
3073  10
3074  17
3075  12
3076  11
3077  10
3078  11
3079  14
3080  12
3081  10
3082  13
3083  13
3084  17
3085  10
3086  17
3087  19
3088  24
3089  14
3090  16
3091  14
3092  19
3093  12
3094  13
3095  12
3096  15
3097  7
3098  10
3099  9
3100  13
3101  9
3102  7
3103  18
3104  20
3105  18
3106  17
3107  15
3108  14
3109  17
3110  12
3111  14
3112  9
3113  14
3114  11
3115  12
3116  14
3117  17
3118  18
3119  17
3120  14
3121  14
3122  18
3123  9
3124  11
3125  12
3126  9
3127  17
3128  18
3129  14
3130  13
3131  18
3132  15
3133  15
3134  14
3135  20
3136  16
3137  13
3138  15
3139  12
3140  14
3141  11
3142  8
3143  13
3144  14
3145  13
3146  17
3147  22
3148  17
3149  22
3150  24
3151  21
3152  23
3153  18
3154  18
3155  13
3156  14
3157  19
3158  19
3159  9
3160  14
3161  12
3162  8
3163  15
3164  18
3165  15
3166  18
3167  17
3168  22
3169  27
3170  19
3171  16
3172  13
3173  16
3174  18
3175  10
3176  19
3177  14
3178  15
3179  7
3180  13
3181  12
3182  8
3183  11
3184  10
3185  12
3186  13
3187  12
3188  10
3189  9
3190  14
3191  16
3192  12
3193  12
3194  7
3195  9
3196  19
3197  10
3198  14
3199  14
3200  20
3201  13
3202  12
3203  19
3204  12
3205  10
3206  10
3207  15
3208  8
3209  13
3210  16
3211  12
3212  10
3213  14
3214  15
3215  18
3216  12
3217  8
3218  17
3219  14
3220  13
3221  14
3222  10
3223  14
3224  10
3225  8
3226  10
3227  12
3228  7
3229  5
3230  20
3231  8
3232  14
3233  9
3234  10
3235  6
3236  8
3237  12
3238  14
3239  10
3240  7
3241  10
3242  8
3243  9
3244  14
3245  19
3246  10
3247  10
3248  9
3249  8
3250  9
3251  13
3252  15
3253  12
3254  8
3255  12
3256  11
3257  19
3258  14
3259  12
3260  11
3261  15
3262  11
3263  14
3264  16
3265  6
3266  12
3267  9
3268  18
3269  11
3270  10
3271  9
3272  9
3273  8
3274  16
3275  10
3276  13
3277  16
3278  9
3279  12
3280  11
3281  25
3282  17
3283  20
3284  21
3285  16
3286  25
3287  28
3288  24
3289  29
3290  28
3291  22
3292  12
3293  19
3294  11
3295  19
3296  10
3297  16
3298  15
3299  9
3300  11
3301  15
3302  10
3303  13
3304  11
3305  16
3306  14
3307  10
3308  10
3309  16
3310  10
3311  15
3312  13
3313  7
3314  5
3315  12
3316  10
3317  12
3318  16
3319  8
3320  17
3321  13
3322  23
3323  12
3324  10
3325  10
3326  18
3327  15
3328  12
3329  8
3330  9
3331  7
3332  9
3333  15
3334  9
3335  11
3336  12
3337  7
3338  7
3339  13
3340  15
3341  8
3342  10
3343  10
3344  17
3345  12
3346  21
3347  6
3348  17
3349  15
3350  8
3351  14
3352  9
3353  12
3354  16
3355  7
3356  14
3357  10
3358  19
3359  16
3360  18
3361  8
3362  13
3363  12
3364  16
3365  17
3366  10
3367  16
3368  11
3369  11
3370  8
3371  17
3372  9
3373  12
3374  10
3375  18
3376  9
3377  18
3378  10
3379  6
3380  13
3381  11
3382  8
3383  9
3384  16
3385  19
3386  16
3387  16
3388  9
3389  13
3390  8
3391  7
3392  8
3393  14
3394  6
3395  8
3396  14
3397  8
3398  17
3399  10
3400  13
3401  9
3402  6
3403  13
3404  19
3405  11
3406  9
3407  9
3408  15
3409  11
3410  14
3411  12
3412  7
3413  15
3414  13
3415  10
3416  11
3417  12
3418  13
3419  10
3420  12
3421  8
3422  9
3423  9
3424  6
3425  10
3426  8
3427  14
3428  11
3429  9
3430  15
3431  7
3432  17
3433  9
3434  7
3435  12
3436  9
3437  9
3438  14
3439  10
3440  17
3441  11
3442  15
3443  7
3444  7
3445  5
3446  14
3447  13
3448  17
3449  7
3450  15
3451  12
3452  8
3453  9
3454  13
3455  14
3456  10
3457  14
3458  16
3459  10
3460  8
3461  12
3462  16
3463  10
3464  6
3465  9
3466  14
3467  10
3468  9
3469  12
3470  11
3471  5
3472  8
3473  12
3474  20
3475  12
3476  9
3477  8
3478  13
3479  16
3480  9
3481  14
3482  9
3483  9
3484  7
3485  10
3486  16
3487  9
3488  14
3489  16
3490  9
3491  14
3492  22
3493  10
3494  10
3495  7
3496  12
3497  14
3498  11
3499  7
3500  17
3501  9
3502  13
3503  11
3504  8
3505  19
3506  9
3507  15
3508  11
3509  12
3510  7
3511  12
3512  10
3513  10
3514  21
3515  10
3516  13
3517  11
3518  16
3519  12
3520  7
3521  9
3522  17
3523  11
3524  8
3525  17
3526  7
3527  17
3528  11
3529  13
3530  12
3531  12
3532  12
3533  12
3534  12
3535  10
3536  11
3537  14
3538  7
3539  13
3540  17
3541  9
3542  9
3543  8
3544  11
3545  15
3546  6
3547  15
3548  14
3549  13
3550  6
3551  16
3552  11
3553  13
3554  13
3555  12
3556  14
3557  10
3558  13
3559  13
3560  7
3561  17
3562  10
3563  5
3564  12
3565  11
3566  12
3567  10
3568  8
3569  22
3570  9
3571  11
3572  10
3573  12
3574  10
3575  10
3576  12
3577  17
3578  8
3579  14
3580  16
3581  16
3582  11
3583  7
3584  13
3585  15
3586  17
3587  16
3588  9
3589  16
3590  14
3591  12
3592  10
3593  11
3594  10
3595  10
3596  13
3597  10
3598  10
3599  9
3600  11
3601  13
3602  7
3603  16
3604  7
3605  11
3606  19
3607  9
3608  9
3609  10
3610  15
3611  15
3612  11
3613  12
3614  11
3615  13
3616  11
3617  9
3618  7
3619  13
3620  8
3621  18
3622  13
3623  11
3624  10
3625  23
3626  14
3627  11
3628  16
3629  9
3630  11
3631  14
3632  15
3633  8
3634  11
3635  8
3636  9
3637  12
3638  15
3639  8
3640  11
3641  17
3642  15
3643  12
3644  13
3645  23
3646  19
3647  12
3648  13
3649  15
3650  17
3651  9
3652  11
3653  14
3654  12
3655  13
3656  18
3657  10
3658  13
3659  4
3660  8
3661  16
3662  14
3663  9
3664  10
3665  8
3666  10
3667  8
3668  10
3669  12
3670  12
3671  9
3672  14
3673  14
3674  10
3675  13
3676  12
3677  12
3678  9
3679  11
3680  8
3681  14
3682  13
3683  6
3684  11
3685  11
3686  13
3687  9
3688  7
3689  11
3690  11
3691  16
3692  14
3693  21
3694  17
3695  22
3696  22
3697  20
3698  22
3699  17
3700  15
3701  12
3702  13
3703  12
3704  10
3705  15
3706  13
3707  8
3708  8
3709  12
3710  10
3711  10
3712  14
3713  7
3714  12
3715  12
3716  9
3717  10
3718  9
3719  10
3720  8
3721  8
3722  14
3723  17
3724  12
3725  11
3726  15
3727  8
3728  10
3729  8
3730  15
3731  9
3732  13
3733  9
3734  15
3735  12
3736  11
3737  6
3738  13
3739  9
3740  6
3741  14
3742  7
3743  11
3744  13
3745  13
3746  10
3747  13
3748  9
3749  10
3750  9
3751  10
3752  15
3753  13
3754  11
3755  12
3756  12
3757  8
3758  19
3759  10
3760  17
3761  15
3762  11
3763  15
3764  8
3765  12
3766  14
3767  11
3768  10
3769  8
3770  9
3771  7
3772  6
3773  9
3774  19
3775  8
3776  14
3777  6
3778  15
3779  8
3780  12
3781  12
3782  6
3783  12
3784  9
3785  14
3786  4
3787  11
3788  9
3789  12
3790  13
3791  8
3792  11
3793  20
3794  15
3795  12
3796  10
3797  10
3798  5
3799  13
3800  8
3801  11
3802  12
3803  9
3804  13
3805  9
3806  6
3807  8
3808  15
3809  10
3810  4
3811  11
3812  9
3813  11
3814  13
3815  11
3816  9
3817  8
3818  17
3819  16
3820  14
3821  9
3822  17
3823  12
3824  15
3825  17
3826  17
3827  13
3828  8
3829  7
3830  13
3831  11
3832  4
3833  10
3834  8
3835  8
3836  12
3837  12
3838  14
3839  7
3840  11
3841  10
3842  12
3843  14
3844  15
3845  6
3846  10
3847  11
3848  8
3849  9
3850  7
3851  9
3852  17
3853  11
3854  10
3855  22
3856  13
3857  14
3858  20
3859  11
3860  16
3861  17
3862  20
3863  12
3864  9
3865  8
3866  13
3867  10
3868  13
3869  8
3870  13
3871  12
3872  15
3873  15
3874  14
3875  17
3876  10
3877  7
3878  10
3879  11
3880  10
3881  13
3882  15
3883  11
3884  7
3885  2
3886  6
3887  5
3888  12
3889  8
3890  14
3891  8
3892  14
3893  17
3894  12
3895  7
3896  12
3897  7
3898  12
3899  13
3900  12
3901  15
3902  13
3903  13
3904  11
3905  13
3906  8
3907  12
3908  13
3909  13
3910  12
3911  14
3912  10
3913  6
3914  12
3915  9
3916  21
3917  12
3918  5
3919  8
3920  9
3921  10
3922  9
3923  9
3924  13
3925  5
3926  13
3927  9
3928  18
3929  15
3930  13
3931  7
3932  6
3933  10
3934  10
3935  8
3936  12
3937  9
3938  13
3939  10
3940  11
3941  13
3942  9
3943  13
3944  12
3945  11
3946  13
3947  13
3948  17
3949  7
3950  10
3951  16
3952  18
3953  11
3954  11
3955  10
3956  11
3957  16
3958  10
3959  14
3960  9
3961  10
3962  4
3963  14
3964  12
3965  11
3966  12
3967  17
3968  11
3969  14
3970  9
3971  11
3972  6
3973  13
3974  12
3975  8
3976  14
3977  10
3978  9
3979  9
3980  7
3981  17
3982  12
3983  8
3984  5
3985  18
3986  10
3987  12
3988  16
3989  13
3990  8
3991  19
3992  6
3993  12
3994  11
3995  4
3996  20
3997  18
3998  14
3999  10
4000  10
4001  10
4002  17
4003  11
4004  13
4005  11
4006  12
4007  12
4008  18
4009  8
4010  14
4011  9
4012  14
4013  8
4014  11
4015  14
4016  12
4017  13
4018  10
4019  12
4020  14
4021  10
4022  9
4023  9
4024  3
4025  13
4026  13
4027  7
4028  12
4029  12
4030  11
4031  15
4032  10
4033  8
4034  11
4035  11
4036  14
4037  9
4038  10
4039  9
4040  10
4041  12
4042  15
4043  16
4044  14
4045  15
4046  10
4047  21
4048  18
4049  13
4050  10
4051  13
4052  10
4053  14
4054  8
4055  12
4056  8
4057  11
4058  11
4059  6
4060  11
4061  13
4062  14
4063  13
4064  13
4065  11
4066  9
4067  9
4068  13
4069  10
4070  4
4071  11
4072  7
4073  9
4074  10
4075  7
4076  11
4077  11
4078  8
4079  13
4080  11
4081  11
4082  8
4083  15
4084  10
4085  7
4086  11
4087  18
4088  12
4089  14
4090  6
4091  15
4092  13
4093  10
4094  12
4095  13
4096  10
4097  9
4098  9
4099  6
4100  10
4101  3
4102  6
4103  10
4104  16
4105  16
4106  14
4107  11
4108  17
4109  7
4110  5
4111  11
4112  13
4113  5
4114  7
4115  11
4116  6
4117  16
4118  12
4119  14
4120  15
4121  10
4122  8
4123  6
4124  11
4125  8
4126  9
4127  12
4128  9
4129  12
4130  6
4131  13
4132  10
4133  9
4134  8
4135  13
4136  11
4137  9
4138  11
4139  7
4140  7
4141  9
4142  8
4143  7
4144  7
4145  8
4146  10
4147  7
4148  12
4149  13
4150  16
4151  13
4152  12
4153  13
4154  18
4155  32
4156  45
4157  51
4158  70
4159  68
4160  111
4161  123
4162  128
4163  125
4164  141
4165  134
4166  95
4167  71
4168  64
4169  35
4170  35
4171  24
4172  13
4173  11
4174  9
4175  9
4176  11
4177  6
4178  15
4179  16
4180  9
4181  10
4182  10
4183  9
4184  9
4185  5
4186  9
4187  4
4188  11
4189  8
4190  8
4191  12
4192  9
4193  12
4194  9
4195  14
4196  5
4197  5
4198  18
4199  4
4200  7
4201  7
4202  4
4203  10
4204  7
4205  9
4206  7
4207  10
4208  10
4209  11
4210  11
4211  11
4212  4
4213  10
4214  7
4215  9
4216  10
4217  10
4218  8
4219  3
4220  8
4221  9
4222  11
4223  12
4224  8
4225  12
4226  8
4227  9
4228  1
4229  10
4230  9
4231  15
4232  13
4233  9
4234  8
4235  11
4236  7
4237  9
4238  10
4239  9
4240  9
4241  6
4242  10
4243  10
4244  13
4245  14
4246  10
4247  11
4248  6
4249  7
4250  7
4251  8
4252  6
4253  15
4254  16
4255  11
4256  10
4257  8
4258  9
4259  6
4260  8
4261  8
4262  7
4263  9
4264  14
4265  6
4266  14
4267  9
4268  9
4269  10
4270  13
4271  12
4272  9
4273  10
4274  10
4275  7
4276  9
4277  5
4278  5
4279  9
4280  13
4281  9
4282  7
4283  11
4284  7
4285  5
4286  5
4287  5
4288  11
4289  9
4290  7
4291  3
4292  9
4293  5
4294  17
4295  9
4296  7
4297  9
4298  8
4299  6
4300  10
4301  12
4302  11
4303  10
4304  9
4305  13
4306  8
4307  10
4308  11
4309  10
4310  10
4311  10
4312  4
4313  4
4314  9
4315  7
4316  8
4317  6
4318  10
4319  12
4320  7
4321  10
4322  13
4323  6
4324  7
4325  14
4326  15
4327  17
4328  10
4329  22
4330  4
4331  13
4332  11
4333  9
4334  12
4335  5
4336  13
4337  12
4338  5
4339  12
4340  8
4341  7
4342  13
4343  8
4344  9
4345  10
4346  14
4347  12
4348  7
4349  12
4350  10
4351  6
4352  8
4353  8
4354  12
4355  11
4356  9
4357  7
4358  11
4359  7
4360  7
4361  3
4362  7
4363  7
4364  10
4365  10
4366  11
4367  10
4368  6
4369  6
4370  13
4371  9
4372  12
4373  7
4374  5
4375  10
4376  6
4377  7
4378  7
4379  9
4380  10
4381  10
4382  14
4383  11
4384  4
4385  6
4386  5
4387  9
4388  4
4389  6
4390  6
4391  10
4392  12
4393  6
4394  8
4395  8
4396  7
4397  13
4398  9
4399  6
4400  12
4401  11
4402  4
4403  9
4404  12
4405  12
4406  13
4407  6
4408  8
4409  6
4410  10
4411  5
4412  10
4413  10
4414  12
4415  7
4416  8
4417  9
4418  4
4419  7
4420  7
4421  8
4422  14
4423  14
4424  6
4425  11
4426  6
4427  6
4428  13
4429  13
4430  12
4431  9
4432  7
4433  13
4434  10
4435  6
4436  10
4437  13
4438  10
4439  6
4440  4
4441  7
4442  9
4443  10
4444  7
4445  4
4446  11
4447  8
4448  15
4449  10
4450  8
4451  7
4452  12
4453  11
4454  11
4455  11
4456  12
4457  14
4458  7
4459  6
4460  14
4461  5
4462  8
4463  14
4464  11
4465  9
4466  5
4467  13
4468  15
4469  9
4470  11
4471  8
4472  5
4473  8
4474  8
4475  8
4476  11
4477  14
4478  8
4479  9
4480  9
4481  9
4482  16
4483  11
4484  7
4485  7
4486  6
4487  15
4488  6
4489  10
4490  11
4491  8
4492  16
4493  6
4494  9
4495  8
4496  6
4497  10
4498  11
4499  15
4500  14
4501  11
4502  8
4503  8
4504  10
4505  5
4506  9
4507  4
4508  9
4509  6
4510  8
4511  10
4512  5
4513  11
4514  5
4515  11
4516  7
4517  7
4518  6
4519  7
4520  3
4521  8
4522  6
4523  7
4524  9
4525  12
4526  8
4527  5
4528  6
4529  10
4530  11
4531  6
4532  12
4533  5
4534  11
4535  10
4536  11
4537  9
4538  17
4539  11
4540  6
4541  11
4542  9
4543  8
4544  15
4545  9
4546  7
4547  7
4548  13
4549  3
4550  14
4551  7
4552  9
4553  14
4554  14
4555  9
4556  7
4557  6
4558  8
4559  7
4560  11
4561  10
4562  7
4563  7
4564  9
4565  11
4566  8
4567  6
4568  8
4569  3
4570  6
4571  4
4572  17
4573  9
4574  6
4575  9
4576  9
4577  7
4578  7
4579  5
4580  7
4581  11
4582  3
4583  9
4584  6
4585  8
4586  9
4587  8
4588  7
4589  7
4590  9
4591  13
4592  8
4593  11
4594  7
4595  4
4596  5
4597  14
4598  16
4599  9
4600  10
4601  6
4602  9
4603  9
4604  10
4605  8
4606  4
4607  10
4608  9
4609  11
4610  10
4611  15
4612  10
4613  16
4614  15
4615  22
4616  34
4617  32
4618  40
4619  40
4620  42
4621  52
4622  30
4623  46
4624  34
4625  26
4626  11
4627  13
4628  12
4629  9
4630  10
4631  15
4632  5
4633  8
4634  6
4635  9
4636  16
4637  12
4638  3
4639  12
4640  6
4641  10
4642  12
4643  8
4644  10
4645  8
4646  9
4647  9
4648  9
4649  4
4650  12
4651  8
4652  12
4653  13
4654  5
4655  7
4656  10
4657  4
4658  10
4659  9
4660  8
4661  8
4662  9
4663  5
4664  9
4665  6
4666  11
4667  12
4668  10
4669  8
4670  13
4671  7
4672  11
4673  7
4674  9
4675  11
4676  9
4677  8
4678  5
4679  7
4680  7
4681  8
4682  6
4683  6
4684  10
4685  5
4686  9
4687  9
4688  9
4689  10
4690  12
4691  11
4692  12
4693  11
4694  9
4695  12
4696  8
4697  13
4698  7
4699  6
4700  10
4701  8
4702  14
4703  11
4704  7
4705  2
4706  5
4707  8
4708  9
4709  10
4710  8
4711  8
4712  11
4713  4
4714  6
4715  7
4716  5
4717  7
4718  6
4719  8
4720  9
4721  14
4722  5
4723  5
4724  5
4725  8
4726  7
4727  7
4728  13
4729  10
4730  7
4731  11
4732  8
4733  8
4734  7
4735  6
4736  5
4737  8
4738  3
4739  12
4740  11
4741  5
4742  15
4743  5
4744  8
4745  11
4746  10
4747  9
4748  2
4749  6
4750  10
4751  10
4752  9
4753  7
4754  8
4755  5
4756  5
4757  5
4758  8
4759  5
4760  3
4761  5
4762  9
4763  9
4764  6
4765  7
4766  5
4767  6
4768  5
4769  6
4770  10
4771  12
4772  9
4773  9
4774  15
4775  9
4776  7
4777  6
4778  10
4779  8
4780  10
4781  3
4782  7
4783  5
4784  9
4785  11
4786  13
4787  5
4788  10
4789  4
4790  11
4791  7
4792  6
4793  10
4794  11
4795  9
4796  12
4797  8
4798  12
4799  7
4800  2
4801  7
4802  12
4803  10
4804  5
4805  8
4806  7
4807  6
4808  8
4809  10
4810  11
4811  8
4812  7
4813  6
4814  13
4815  6
4816  5
4817  8
4818  5
4819  12
4820  9
4821  13
4822  10
4823  7
4824  7
4825  6
4826  5
4827  10
4828  13
4829  5
4830  10
4831  5
4832  9
4833  9
4834  7
4835  8
4836  4
4837  5
4838  6
4839  9
4840  5
4841  10
4842  11
4843  11
4844  6
4845  8
4846  7
4847  10
4848  10
4849  9
4850  10
4851  12
4852  15
4853  12
4854  5
4855  4
4856  6
4857  7
4858  5
4859  6
4860  7
4861  4
4862  5
4863  1
4864  9
4865  5
4866  6
4867  4
4868  8
4869  5
4870  3
4871  5
4872  3
4873  9
4874  6
4875  11
4876  7
4877  3
4878  7
4879  5
4880  8
4881  10
4882  7
4883  3
4884  9
4885  6
4886  9
4887  10
4888  16
4889  17
4890  11
4891  8
4892  7
4893  6
4894  10
4895  8
4896  5
4897  5
4898  9
4899  4
4900  4
4901  8
4902  5
4903  5
4904  5
4905  6
4906  7
4907  2
4908  4
4909  7
4910  2
4911  4
4912  2
4913  9
4914  7
4915  7
4916  5
4917  12
4918  9
4919  11
4920  9
4921  8
4922  10
4923  3
4924  7
4925  8
4926  11
4927  10
4928  7
4929  4
4930  3
4931  9
4932  5
4933  6
4934  4
4935  3
4936  6
4937  8
4938  8
4939  5
4940  8
4941  2
4942  10
4943  8
4944  8
4945  7
4946  7
4947  4
4948  7
4949  9
4950  8
4951  11
4952  8
4953  9
4954  4
4955  9
4956  4
4957  11
4958  4
4959  8
4960  8
4961  6
4962  8
4963  6
4964  4
4965  5
4966  7
4967  4
4968  6
4969  8
4970  7
4971  5
4972  6
4973  5
4974  6
4975  6
4976  3
4977  6
4978  5
4979  3
4980  8
4981  5
4982  5
4983  2
4984  7
4985  10
4986  7
4987  7
4988  5
4989  7
4990  5
4991  4
4992  0
4993  4
4994  8
4995  4
4996  2
4997  8
4998  10
4999  5
5000  9
5001  5
5002  12
5003  8
5004  6
5005  7
5006  6
5007  2
5008  2
5009  2
5010  6
5011  4
5012  11
5013  5
5014  8
5015  2
5016  5
5017  7
5018  5
5019  7
5020  3
5021  3
5022  5
5023  8
5024  6
5025  14
5026  5
5027  10
5028  3
5029  9
5030  3
5031  7
5032  8
5033  13
5034  5
5035  5
5036  4
5037  9
5038  7
5039  5
5040  3
5041  6
5042  3
5043  6
5044  3
5045  4
5046  5
5047  3
5048  7
5049  6
5050  4
5051  8
5052  5
5053  3
5054  10
5055  6
5056  6
5057  7
5058  5
5059  5
5060  1
5061  3
5062  4
5063  5
5064  1
5065  8
5066  8
5067  9
5068  4
5069  5
5070  4
5071  6
5072  9
5073  4
5074  7
5075  4
5076  6
5077  6
5078  7
5079  13
5080  2
5081  13
5082  4
5083  1
5084  5
5085  5
5086  6
5087  9
5088  4
5089  7
5090  3
5091  3
5092  4
5093  6
5094  4
5095  6
5096  8
5097  4
5098  4
5099  7
5100  5
5101  5
5102  8
5103  11
5104  6
5105  11
5106  7
5107  9
5108  9
5109  17
5110  10
5111  24
5112  26
5113  36
5114  45
5115  67
5116  92
5117  88
5118  77
5119  97
5120  100
5121  108
5122  88
5123  94
5124  72
5125  52
5126  39
5127  29
5128  12
5129  19
5130  6
5131  3
5132  6
5133  1
5134  2
5135  6
5136  11
5137  2
5138  3
5139  9
5140  8
5141  8
5142  13
5143  7
5144  5
5145  12
5146  11
5147  12
5148  6
5149  11
5150  6
5151  7
5152  4
5153  7
5154  0
5155  3
5156  9
5157  4
5158  3
5159  5
5160  6
5161  4
5162  3
5163  3
5164  7
5165  8
5166  4
5167  3
5168  9
5169  6
5170  5
5171  1
5172  3
5173  2
5174  4
5175  6
5176  5
5177  10
5178  5
5179  4
5180  5
5181  10
5182  4
5183  8
5184  7
5185  3
5186  5
5187  2
5188  1
5189  6
5190  5
5191  4
5192  6
5193  3
5194  4
5195  6
5196  6
5197  6
5198  5
5199  5
5200  4
5201  3
5202  14
5203  5
5204  3
5205  5
5206  4
5207  11
5208  4
5209  8
5210  5
5211  7
5212  7
5213  6
5214  5
5215  5
5216  4
5217  5
5218  5
5219  4
5220  5
5221  7
5222  4
5223  3
5224  5
5225  7
5226  5
5227  6
5228  6
5229  4
5230  3
5231  7
5232  2
5233  9
5234  3
5235  6
5236  3
5237  3
5238  4
5239  8
5240  4
5241  7
5242  5
5243  2
5244  7
5245  2
5246  9
5247  4
5248  3
5249  4
5250  6
5251  4
5252  6
5253  2
5254  6
5255  6
5256  3
5257  5
5258  3
5259  2
5260  2
5261  8
5262  4
5263  4
5264  6
5265  6
5266  4
5267  6
5268  4
5269  7
5270  5
5271  3
5272  1
5273  8
5274  8
5275  6
5276  5
5277  10
5278  5
5279  1
5280  4
5281  11
5282  4
5283  2
5284  10
5285  6
5286  4
5287  6
5288  8
5289  3
5290  4
5291  4
5292  4
5293  4
5294  3
5295  5
5296  1
5297  5
5298  3
5299  4
5300  7
5301  4
5302  4
5303  4
5304  6
5305  1
5306  9
5307  3
5308  5
5309  3
5310  5
5311  4
5312  3
5313  3
5314  4
5315  6
5316  4
5317  7
5318  6
5319  4
5320  3
5321  4
5322  4
5323  5
5324  6
5325  7
5326  7
5327  3
5328  4
5329  7
5330  10
5331  5
5332  8
5333  7
5334  13
5335  9
5336  11
5337  10
5338  4
5339  6
5340  5
5341  7
5342  5
5343  5
5344  7
5345  6
5346  6
5347  4
5348  5
5349  3
5350  5
5351  5
5352  7
5353  6
5354  4
5355  4
5356  4
5357  8
5358  2
5359  8
5360  5
5361  2
5362  5
5363  3
5364  6
5365  6
5366  2
5367  6
5368  6
5369  2
5370  3
5371  4
5372  4
5373  4
5374  5
5375  6
5376  3
5377  3
5378  5
5379  2
5380  5
5381  2
5382  6
5383  2
5384  4
5385  2
5386  3
5387  7
5388  7
5389  2
5390  5
5391  4
5392  9
5393  5
5394  4
5395  2
5396  2
5397  5
5398  4
5399  2
5400  5
5401  0
5402  2
5403  5
5404  4
5405  6
5406  3
5407  6
5408  2
5409  4
5410  1
5411  3
5412  5
5413  8
5414  5
5415  3
5416  3
5417  2
5418  5
5419  6
5420  1
5421  5
5422  6
5423  2
5424  5
5425  7
5426  3
5427  7
5428  5
5429  6
5430  4
5431  10
5432  4
5433  8
5434  5
5435  3
5436  2
5437  3
5438  3
5439  5
5440  0
5441  0
5442  8
5443  4
5444  7
5445  6
5446  1
5447  2
5448  6
5449  3
5450  4
5451  4
5452  5
5453  4
5454  2
5455  8
5456  2
5457  5
5458  5
5459  8
5460  3
5461  0
5462  7
5463  3
5464  7
5465  1
5466  7
5467  3
5468  1
5469  5
5470  6
5471  3
5472  8
5473  3
5474  2
5475  1
5476  1
5477  3
5478  3
5479  2
5480  3
5481  3
5482  5
5483  3
5484  8
5485  4
5486  6
5487  5
5488  4
5489  6
5490  5
5491  0
5492  4
5493  3
5494  4
5495  5
5496  4
5497  5
5498  6
5499  6
5500  4
5501  4
5502  7
5503  3
5504  6
5505  6
5506  6
5507  3
5508  5
5509  2
5510  4
5511  0
5512  2
5513  4
5514  9
5515  3
5516  6
5517  3
5518  3
5519  6
5520  5
5521  5
5522  3
5523  5
5524  2
5525  4
5526  3
5527  7
5528  4
5529  4
5530  5
5531  5
5532  4
5533  7
5534  5
5535  7
5536  4
5537  3
5538  4
5539  5
5540  5
5541  2
5542  5
5543  5
5544  7
5545  5
5546  2
5547  8
5548  7
5549  5
5550  5
5551  2
5552  5
5553  8
5554  5
5555  5
5556  2
5557  3
5558  4
5559  4
5560  2
5561  1
5562  5
5563  5
5564  6
5565  5
5566  6
5567  3
5568  6
5569  5
5570  4
5571  7
5572  4
5573  7
5574  4
5575  6
5576  4
5577  7
5578  6
5579  3
5580  3
5581  3
5582  7
5583  6
5584  8
5585  2
5586  6
5587  2
5588  5
5589  3
5590  2
5591  1
5592  8
5593  1
5594  5
5595  4
5596  5
5597  1
5598  7
5599  3
5600  6
5601  2
5602  4
5603  3
5604  3
5605  4
5606  1
5607  2
5608  4
5609  3
5610  4
5611  4
5612  6
5613  3
5614  5
5615  5
5616  4
5617  4
5618  1
5619  8
5620  2
5621  7
5622  1
5623  6
5624  4
5625  8
5626  5
5627  6
5628  3
5629  4
5630  3
5631  1
5632  6
5633  7
5634  7
5635  6
5636  4
5637  3
5638  6
5639  2
5640  6
5641  1
5642  6
5643  2
5644  5
5645  5
5646  6
5647  4
5648  4
5649  5
5650  4
5651  6
5652  4
5653  3
5654  2
5655  3
5656  2
5657  3
5658  4
5659  8
5660  3
5661  5
5662  4
5663  4
5664  3
5665  5
5666  6
5667  6
5668  4
5669  6
5670  1
5671  4
5672  4
5673  2
5674  6
5675  4
5676  4
5677  11
5678  3
5679  5
5680  4
5681  1
5682  4
5683  6
5684  3
5685  5
5686  4
5687  2
5688  3
5689  4
5690  4
5691  4
5692  6
5693  2
5694  6
5695  5
5696  7
5697  4
5698  2
5699  3
5700  1
5701  3
5702  7
5703  3
5704  5
5705  5
5706  5
5707  7
5708  3
5709  6
5710  3
5711  0
5712  5
5713  6
5714  6
5715  5
5716  6
5717  4
5718  1
5719  5
5720  4
5721  5
5722  1
5723  3
5724  4
5725  2
5726  0
5727  3
5728  5
5729  3
5730  7
5731  10
5732  2
5733  6
5734  8
5735  8
5736  7
5737  7
5738  5
5739  14
5740  19
5741  14
5742  23
5743  30
5744  42
5745  37
5746  48
5747  48
5748  65
5749  86
5750  57
5751  71
5752  55
5753  48
5754  48
5755  29
5756  19
5757  14
5758  8
5759  12
5760  3
5761  6
5762  6
5763  8
5764  12
5765  4
5766  14
5767  16
5768  14
5769  11
5770  16
5771  13
5772  17
5773  12
5774  6
5775  9
5776  3
5777  3
5778  3
5779  8
5780  3
5781  6
5782  5
5783  5
5784  1
5785  5
5786  8
5787  2
5788  3
5789  5
5790  5
5791  2
5792  0
5793  2
5794  2
5795  6
5796  4
5797  7
5798  7
5799  4
5800  2
5801  5
5802  3
5803  8
5804  2
5805  1
5806  2
5807  6
5808  5
5809  6
5810  7
5811  8
5812  3
5813  2
5814  9
5815  7
5816  5
5817  2
5818  5
5819  1
5820  8
5821  4
5822  9
5823  3
5824  7
5825  10
5826  7
5827  2
5828  1
5829  4
5830  9
5831  6
5832  6
5833  4
5834  6
5835  6
5836  3
5837  4
5838  7
5839  5
5840  5
5841  4
5842  3
5843  4
5844  1
5845  2
5846  2
5847  5
5848  8
5849  7
5850  1
5851  5
5852  7
5853  5
5854  7
5855  8
5856  7
5857  3
5858  4
5859  10
5860  3
5861  4
5862  2
5863  5
5864  7
5865  9
5866  10
5867  6
5868  8
5869  5
5870  5
5871  7
5872  9
5873  8
5874  14
5875  16
5876  29
5877  23
5878  36
5879  42
5880  36
5881  62
5882  61
5883  70
5884  77
5885  84
5886  69
5887  81
5888  63
5889  49
5890  48
5891  39
5892  22
5893  12
5894  12
5895  8
5896  2
5897  7
5898  3
5899  2
5900  5
5901  4
5902  3
5903  2
5904  7
5905  4
5906  3
5907  4
5908  4
5909  5
5910  3
5911  4
5912  4
5913  5
5914  3
5915  4
5916  0
5917  6
5918  2
5919  6
5920  4
5921  8
5922  5
5923  6
5924  3
5925  9
5926  4
5927  12
5928  6
5929  14
5930  7
5931  8
5932  3
5933  8
5934  0
5935  3
5936  4
5937  7
5938  4
5939  5
5940  5
5941  7
5942  7
5943  10
5944  7
5945  6
5946  5
5947  3
5948  3
5949  3
5950  4
5951  2
5952  3
5953  3
5954  2
5955  1
5956  5
5957  2
5958  6
5959  3
5960  6
5961  4
5962  6
5963  5
5964  2
5965  6
5966  9
5967  6
5968  3
5969  6
5970  8
5971  5
5972  1
5973  4
5974  6
5975  5
5976  4
5977  7
5978  4
5979  1
5980  4
5981  3
5982  3
5983  3
5984  3
5985  3
5986  4
5987  7
5988  2
5989  4
5990  9
5991  5
5992  7
5993  5
5994  3
5995  3
5996  3
5997  3
5998  4
5999  4
6000  3
6001  1
6002  7
6003  2
6004  6
6005  5
6006  6
6007  4
6008  1
6009  2
6010  2
6011  6
6012  2
6013  5
6014  1
6015  2
6016  3
6017  3
6018  5
6019  5
6020  5
6021  6
6022  2
6023  5
6024  5
6025  3
6026  3
6027  9
6028  6
6029  5
6030  7
6031  2
6032  7
6033  3
6034  6
6035  4
6036  0
6037  2
6038  4
6039  6
6040  2
6041  4
6042  4
6043  2
6044  4
6045  2
6046  5
6047  3
6048  3
6049  4
6050  6
6051  7
6052  4
6053  8
6054  5
6055  6
6056  4
6057  9
6058  6
6059  4
6060  3
6061  3
6062  4
6063  5
6064  4
6065  7
6066  4
6067  6
6068  5
6069  7
6070  3
6071  3
6072  3
6073  5
6074  1
6075  3
6076  3
6077  2
6078  6
6079  4
6080  9
6081  6
6082  5
6083  7
6084  7
6085  10
6086  3
6087  5
6088  5
6089  3
6090  5
6091  5
6092  4
6093  4
6094  3
6095  2
6096  2
6097  2
6098  5
6099  8
6100  4
6101  4
6102  3
6103  12
6104  4
6105  4
6106  4
6107  3
6108  8
6109  5
6110  4
6111  5
6112  4
6113  3
6114  6
6115  4
6116  5
6117  7
6118  2
6119  7
6120  3
6121  2
6122  4
6123  10
6124  4
6125  2
6126  6
6127  2
6128  6
6129  7
6130  5
6131  2
6132  3
6133  4
6134  6
6135  3
6136  3
6137  3
6138  2
6139  4
6140  5
6141  2
6142  5
6143  11
6144  5
6145  6
6146  4
6147  2
6148  6
6149  1
6150  6
6151  6
6152  7
6153  10
6154  8
6155  3
6156  3
6157  1
6158  3
6159  5
6160  3
6161  3
6162  5
6163  6
6164  9
6165  8
6166  3
6167  7
6168  8
6169  4
6170  3
6171  2
6172  9
6173  5
6174  9
6175  2
6176  3
6177  3
6178  2
6179  1
6180  8
6181  5
6182  4
6183  5
6184  2
6185  2
6186  3
6187  4
6188  11
6189  6
6190  4
6191  5
6192  3
6193  3
6194  5
6195  3
6196  11
6197  7
6198  3
6199  6
6200  8
6201  5
6202  5
6203  4
6204  3
6205  3
6206  5
6207  6
6208  6
6209  11
6210  6
6211  2
6212  1
6213  6
6214  2
6215  5
6216  7
6217  4
6218  6
6219  4
6220  7
6221  5
6222  5
6223  7
6224  6
6225  5
6226  1
6227  5
6228  3
6229  5
6230  5
6231  8
6232  4
6233  2
6234  7
6235  5
6236  6
6237  4
6238  6
6239  2
6240  4
6241  2
6242  8
6243  3
6244  4
6245  5
6246  7
6247  4
6248  7
6249  1
6250  7
6251  6
6252  3
6253  5
6254  4
6255  8
6256  7
6257  6
6258  4
6259  6
6260  3
6261  4
6262  4
6263  7
6264  2
6265  3
6266  5
6267  3
6268  4
6269  4
6270  4
6271  5
6272  6
6273  7
6274  2
6275  7
6276  5
6277  6
6278  6
6279  4
6280  4
6281  0
6282  7
6283  3
6284  3
6285  3
6286  4
6287  1
6288  3
6289  6
6290  3
6291  4
6292  6
6293  6
6294  2
6295  5
6296  3
6297  5
6298  1
6299  3
6300  3
6301  1
6302  5
6303  5
6304  3
6305  6
6306  4
6307  6
6308  2
6309  3
6310  3
6311  5
6312  3
6313  6
6314  6
6315  2
6316  2
6317  10
6318  3
6319  3
6320  3
6321  2
6322  2
6323  6
6324  4
6325  1
6326  6
6327  8
6328  7
6329  3
6330  1
6331  7
6332  0
6333  4
6334  3
6335  4
6336  4
6337  1
6338  6
6339  3
6340  2
6341  5
6342  2
6343  5
6344  3
6345  4
6346  2
6347  3
6348  3
6349  2
6350  1
6351  2
6352  4
6353  3
6354  1
6355  1
6356  2
6357  2
6358  2
6359  2
6360  2
6361  1
6362  2
6363  2
6364  1
6365  2
6366  5
6367  4
6368  3
6369  3
6370  1
6371  3
6372  7
6373  2
6374  4
6375  3
6376  4
6377  1
6378  2
6379  2
6380  2
6381  6
6382  4
6383  3
6384  4
6385  4
6386  5
6387  2
6388  1
6389  3
6390  1
6391  3
6392  4
6393  5
6394  3
6395  3
6396  5
6397  6
6398  6
6399  5
6400  11
6401  10
6402  15
6403  15
6404  10
6405  8
6406  11
6407  7
6408  9
6409  7
6410  5
6411  4
6412  7
6413  4
6414  3
6415  3
6416  6
6417  7
6418  4
6419  0
6420  2
6421  2
6422  5
6423  3
6424  3
6425  1
6426  1
6427  3
6428  5
6429  5
6430  3
6431  8
6432  4
6433  0
6434  3
6435  2
6436  1
6437  5
6438  4
6439  1
6440  1
6441  5
6442  2
6443  1
6444  3
6445  5
6446  5
6447  1
6448  2
6449  2
6450  4
6451  4
6452  1
6453  5
6454  3
6455  2
6456  4
6457  3
6458  3
6459  3
6460  3
6461  6
6462  2
6463  3
6464  2
6465  2
6466  2
6467  2
6468  5
6469  3
6470  1
6471  3
6472  5
6473  2
6474  5
6475  5
6476  2
6477  4
6478  5
6479  2
6480  2
6481  4
6482  3
6483  3
6484  3
6485  4
6486  1
6487  1
6488  1
6489  3
6490  2
6491  3
6492  0
6493  2
6494  5
6495  4
6496  1
6497  10
6498  7
6499  7
6500  3
6501  7
6502  2
6503  6
6504  4
6505  3
6506  3
6507  4
6508  4
6509  3
6510  4
6511  6
6512  1
6513  3
6514  6
6515  4
6516  7
6517  2
6518  7
6519  5
6520  6
6521  3
6522  1
6523  4
6524  4
6525  5
6526  1
6527  3
6528  0
6529  1
6530  2
6531  3
6532  4
6533  2
6534  2
6535  4
6536  4
6537  3
6538  1
6539  5
6540  4
6541  1
6542  3
6543  4
6544  1
6545  1
6546  2
6547  2
6548  4
6549  4
6550  2
6551  5
6552  0
6553  3
6554  1
6555  1
6556  4
6557  4
6558  4
6559  4
6560  4
6561  1
6562  0
6563  1
6564  3
6565  0
6566  1
6567  4
6568  4
6569  3
6570  2
6571  1
6572  0
6573  2
6574  6
6575  2
6576  3
6577  2
6578  2
6579  2
6580  3
6581  1
6582  3
6583  2
6584  7
6585  1
6586  3
6587  3
6588  3
6589  1
6590  6
6591  4
6592  3
6593  5
6594  2
6595  3
6596  1
6597  1
6598  5
6599  1
6600  3
6601  2
6602  3
6603  2
6604  3
6605  6
6606  3
6607  6
6608  2
6609  2
6610  2
6611  0
6612  1
6613  1
6614  2
6615  3
6616  1
6617  1
6618  1
6619  0
6620  3
6621  3
6622  1
6623  5
6624  2
6625  0
6626  0
6627  1
6628  3
6629  4
6630  1
6631  1
6632  0
6633  2
6634  4
6635  2
6636  4
6637  0
6638  2
6639  0
6640  2
6641  1
6642  3
6643  2
6644  2
6645  2
6646  2
6647  1
6648  2
6649  2
6650  2
6651  3
6652  0
6653  4
6654  5
6655  1
6656  2
6657  1
6658  0
6659  2
6660  3
6661  1
6662  2
6663  1
6664  1
6665  2
6666  3
6667  1
6668  2
6669  0
6670  4
6671  1
6672  1
6673  2
6674  0
6675  3
6676  0
6677  0
6678  0
6679  3
6680  1
6681  1
6682  1
6683  1
6684  2
6685  1
6686  1
6687  4
6688  2
6689  0
6690  2
6691  2
6692  2
6693  0
6694  1
6695  2
6696  3
6697  1
6698  0
6699  1
6700  2
6701  0
6702  1
6703  1
6704  1
6705  3
6706  4
6707  1
6708  2
6709  5
6710  4
6711  3
6712  1
6713  4
6714  2
6715  2
6716  0
6717  1
6718  0
6719  3
6720  3
6721  1
6722  3
6723  1
6724  2
6725  1
6726  2
6727  4
6728  0
6729  2
6730  1
6731  1
6732  0
6733  4
6734  2
6735  2
6736  4
6737  1
6738  5
6739  0
6740  1
6741  4
6742  3
6743  3
6744  2
6745  3
6746  2
6747  1
6748  0
6749  1
6750  1
6751  3
6752  1
6753  1
6754  2
6755  1
6756  1
6757  0
6758  3
6759  3
6760  0
6761  0
6762  0
6763  1
6764  1
6765  3
6766  4
6767  1
6768  0
6769  1
6770  2
6771  2
6772  1
6773  3
6774  2
6775  0
6776  0
6777  2
6778  3
6779  1
6780  0
6781  0
6782  0
6783  3
6784  1
6785  2
6786  1
6787  3
6788  0
6789  1
6790  1
6791  0
6792  1
6793  0
6794  2
6795  2
6796  1
6797  3
6798  2
6799  1
6800  1
6801  1
6802  1
6803  0
6804  2
6805  3
6806  1
6807  0
6808  1
6809  0
6810  0
6811  3
6812  2
6813  0
6814  1
6815  4
6816  1
6817  2
6818  2
6819  2
6820  1
6821  0
6822  2
6823  0
6824  0
6825  1
6826  0
6827  3
6828  4
6829  1
6830  2
6831  1
6832  0
6833  2
6834  1
6835  0
6836  3
6837  2
6838  3
6839  4
6840  0
6841  4
6842  5
6843  3
6844  7
6845  6
6846  5
6847  3
6848  8
6849  5
6850  14
6851  8
6852  5
6853  10
6854  4
6855  8
6856  3
6857  3
6858  1
6859  3
6860  3
6861  1
6862  1
6863  2
6864  1
6865  2
6866  1
6867  2
6868  2
6869  0
6870  0
6871  2
6872  1
6873  0
6874  0
6875  0
6876  2
6877  1
6878  0
6879  0
6880  3
6881  0
6882  0
6883  0
6884  2
6885  2
6886  1
6887  0
6888  0
6889  5
6890  1
6891  2
6892  5
6893  2
6894  2
6895  2
6896  0
6897  0
6898  0
6899  0
6900  0
6901  1
6902  2
6903  1
6904  1
6905  1
6906  1
6907  0
6908  3
6909  1
6910  0
6911  3
6912  2
6913  1
6914  2
6915  2
6916  1
6917  2
6918  1
6919  1
6920  1
6921  2
6922  1
6923  2
6924  0
6925  1
6926  1
6927  1
6928  1
6929  2
6930  1
6931  1
6932  0
6933  1
6934  0
6935  4
6936  0
6937  0
6938  1
6939  1
6940  2
6941  0
6942  2
6943  0
6944  1
6945  2
6946  2
6947  0
6948  2
6949  0
6950  1
6951  2
6952  0
6953  1
6954  1
6955  0
6956  1
6957  0
6958  0
6959  1
6960  0
6961  0
6962  1
6963  0
6964  2
6965  1
6966  3
6967  1
6968  0
6969  1
6970  0
6971  1
6972  0
6973  3
6974  2
6975  0
6976  0
6977  1
6978  1
6979  0
6980  0
6981  1
6982  2
6983  1
6984  1
6985  2
6986  0
6987  1
6988  2
6989  0
6990  1
6991  2
6992  0
6993  0
6994  0
6995  0
6996  0
6997  1
6998  2
6999  1
7000  0
7001  1
7002  1
7003  0
7004  1
7005  2
7006  1
7007  0
7008  0
7009  1
7010  0
7011  2
7012  0
7013  2
7014  0
7015  2
7016  2
7017  1
7018  1
7019  2
7020  3
7021  0
7022  0
7023  0
7024  0
7025  3
7026  1
7027  0
7028  0
7029  2
7030  2
7031  0
7032  1
7033  1
7034  1
7035  0
7036  1
7037  1
7038  1
7039  2
7040  0
7041  0
7042  1
7043  2
7044  0
7045  1
7046  0
7047  0
7048  2
7049  2
7050  0
7051  1
7052  1
7053  2
7054  1
7055  3
7056  2
7057  0
7058  1
7059  0
7060  0
7061  3
7062  0
7063  1
7064  0
7065  1
7066  1
7067  0
7068  2
7069  0
7070  0
7071  0
7072  2
7073  0
7074  0
7075  1
7076  0
7077  0
7078  0
7079  0
7080  2
7081  0
7082  0
7083  0
7084  2
7085  0
7086  0
7087  0
7088  0
7089  1
7090  1
7091  3
7092  1
7093  1
7094  0
7095  1
7096  3
7097  0
7098  0
7099  2
7100  0
7101  0
7102  0
7103  3
7104  1
7105  2
7106  0
7107  2
7108  2
7109  1
7110  2
7111  0
7112  0
7113  0
7114  1
7115  2
7116  0
7117  2
7118  1
7119  1
7120  1
7121  2
7122  0
7123  1
7124  0
7125  0
7126  1
7127  0
7128  0
7129  2
7130  0
7131  0
7132  0
7133  1
7134  1
7135  1
7136  0
7137  0
7138  0
7139  0
7140  0
7141  0
7142  1
7143  1
7144  1
7145  0
7146  0
7147  2
7148  0
7149  1
7150  1
7151  1
7152  0
7153  1
7154  1
7155  1
7156  1
7157  0
7158  0
7159  3
7160  1
7161  0
7162  0
7163  0
7164  0
7165  0
7166  1
7167  0
7168  1
7169  0
7170  1
7171  1
7172  4
7173  2
7174  3
7175  1
7176  3
7177  2
7178  2
7179  1
7180  2
7181  1
7182  0
7183  0
7184  0
7185  2
7186  0
7187  0
7188  1
7189  0
7190  0
7191  1
7192  0
7193  0
7194  2
7195  1
7196  2
7197  0
7198  2
7199  2
7200  3
7201  2
7202  1
7203  1
7204  1
7205  0
7206  0
7207  1
7208  0
7209  0
7210  1
7211  0
7212  0
7213  1
7214  3
7215  1
7216  0
7217  0
7218  0
7219  0
7220  1
7221  1
7222  1
7223  0
7224  2
7225  0
7226  1
7227  0
7228  0
7229  0
7230  0
7231  1
7232  0
7233  1
7234  1
7235  0
7236  2
7237  0
7238  1
7239  1
7240  0
7241  0
7242  0
7243  1
7244  1
7245  2
7246  0
7247  1
7248  3
7249  4
7250  2
7251  0
7252  0
7253  1
7254  0
7255  2
7256  2
7257  1
7258  2
7259  1
7260  2
7261  1
7262  0
7263  2
7264  2
7265  1
7266  1
7267  2
7268  0
7269  0
7270  0
7271  3
7272  1
7273  0
7274  1
7275  1
7276  1
7277  1
7278  0
7279  1
7280  0
7281  0
7282  0
7283  1
7284  0
7285  0
7286  2
7287  0
7288  0
7289  1
7290  1
7291  0
7292  1
7293  0
7294  0
7295  2
7296  1
7297  0
7298  0
7299  0
7300  4
7301  0
7302  2
7303  3
7304  0
7305  1
7306  1
7307  0
7308  2
7309  1
7310  0
7311  0
7312  1
7313  0
7314  1
7315  0
7316  0
7317  1
7318  0
7319  1
7320  0
7321  2
7322  1
7323  0
7324  0
7325  1
7326  0
7327  0
7328  0
7329  0
7330  0
7331  0
7332  1
7333  0
7334  0
7335  2
7336  1
7337  0
7338  0
7339  0
7340  1
7341  0
7342  0
7343  2
7344  0
7345  0
7346  2
7347  0
7348  1
7349  0
7350  1
7351  0
7352  1
7353  0
7354  1
7355  0
7356  1
7357  0
7358  1
7359  1
7360  2
7361  1
7362  3
7363  0
7364  0
7365  0
7366  1
7367  0
7368  0
7369  0
7370  1
7371  0
7372  4
7373  0
7374  1
7375  1
7376  0
7377  0
7378  0
7379  1
7380  0
7381  2
7382  0
7383  0
7384  1
7385  1
7386  0
7387  2
7388  1
7389  2
7390  0
7391  0
7392  2
7393  3
7394  1
7395  1
7396  7
7397  5
7398  2
7399  4
7400  8
7401  10
7402  9
7403  19
7404  16
7405  20
7406  32
7407  32
7408  39
7409  58
7410  51
7411  62
7412  87
7413  87
7414  72
7415  99
7416  79
7417  74
7418  48
7419  41
7420  35
7421  29
7422  16
7423  15
7424  10
7425  5
7426  3
7427  2
7428  2
7429  2
7430  1
7431  0
7432  0
7433  1
7434  0
7435  0
7436  0
7437  1
7438  0
7439  0
7440  1
7441  0
7442  1
7443  0
7444  0
7445  1
7446  2
7447  0
7448  0
7449  3
7450  0
7451  2
7452  0
7453  1
7454  0
7455  0
7456  0
7457  0
7458  0
7459  1
7460  1
7461  0
7462  0
7463  0
7464  0
7465  0
7466  1
7467  0
7468  0
7469  1
7470  2
7471  2
7472  0
7473  0
7474  0
7475  0
7476  0
7477  0
7478  0
7479  0
7480  0
7481  0
7482  0
7483  0
7484  2
7485  2
7486  0
7487  0
7488  0
7489  0
7490  0
7491  0
7492  0
7493  0
7494  1
7495  1
7496  1
7497  1
7498  1
7499  2
7500  1
7501  0
7502  0
7503  0
7504  0
7505  1
7506  0
7507  1
7508  0
7509  1
7510  0
7511  2
7512  1
7513  1
7514  1
7515  0
7516  0
7517  2
7518  0
7519  1
7520  0
7521  2
7522  0
7523  0
7524  0
7525  0
7526  0
7527  0
7528  0
7529  0
7530  0
7531  0
7532  0
7533  1
7534  0
7535  2
7536  0
7537  0
7538  1
7539  0
7540  0
7541  1
7542  0
7543  1
7544  0
7545  1
7546  0
7547  3
7548  0
7549  0
7550  1
7551  2
7552  0
7553  0
7554  0
7555  0
7556  0
7557  0
7558  1
7559  0
7560  1
7561  1
7562  0
7563  0
7564  0
7565  1
7566  1
7567  1
7568  0
7569  0
7570  0
7571  0
7572  0
7573  0
7574  0
7575  2
7576  1
7577  1
7578  0
7579  0
7580  0
7581  0
7582  0
7583  1
7584  2
7585  1
7586  0
7587  0
7588  0
7589  2
7590  0
7591  0
7592  1
7593  0
7594  0
7595  0
7596  0
7597  0
7598  0
7599  1
7600  2
7601  0
7602  0
7603  0
7604  1
7605  1
7606  2
7607  0
7608  1
7609  0
7610  0
7611  0
7612  0
7613  1
7614  1
7615  0
7616  0
7617  0
7618  1
7619  0
7620  0
7621  1
7622  0
7623  0
7624  1
7625  0
7626  0
7627  2
7628  0
7629  0
7630  0
7631  0
7632  0
7633  0
7634  0
7635  0
7636  2
7637  0
7638  0
7639  0
7640  0
7641  0
7642  0
7643  0
7644  0
7645  0
7646  0
7647  0
7648  0
7649  0
7650  1
7651  0
7652  0
7653  1
7654  0
7655  0
7656  0
7657  0
7658  0
7659  1
7660  1
7661  1
7662  2
7663  0
7664  1
7665  1
7666  1
7667  1
7668  1
7669  1
7670  1
7671  2
7672  5
7673  4
7674  3
7675  1
7676  3
7677  4
7678  5
7679  3
7680  4
7681  6
7682  4
7683  8
7684  16
7685  23
7686  16
7687  21
7688  19
7689  17
7690  14
7691  14
7692  11
7693  10
7694  6
7695  8
7696  3
7697  4
7698  2
7699  2
7700  1
7701  0
7702  0
7703  0
7704  1
7705  0
7706  0
7707  0
7708  0
7709  0
7710  0
7711  0
7712  0
7713  0
7714  0
7715  0
7716  1
7717  0
7718  0
7719  0
7720  0
7721  0
7722  2
7723  0
7724  1
7725  1
7726  0
7727  0
7728  1
7729  0
7730  0
7731  0
7732  0
7733  0
7734  0
7735  0
7736  1
7737  0
7738  0
7739  0
7740  1
7741  1
7742  2
7743  0
7744  0
7745  0
7746  0
7747  0
7748  0
7749  0
7750  0
7751  1
7752  0
7753  0
7754  0
7755  0
7756  0
7757  0
7758  0
7759  1
7760  0
7761  0
7762  0
7763  0
7764  0
7765  0
7766  1
7767  0
7768  0
7769  1
7770  0
7771  0
7772  1
7773  0
7774  0
7775  0
7776  0
7777  1
7778  1
7779  1
7780  0
7781  0
7782  0
7783  1
7784  0
7785  1
7786  0
7787  0
7788  1
7789  0
7790  0
7791  0
7792  0
7793  1
7794  0
7795  0
7796  0
7797  0
7798  0
7799  1
7800  0
7801  0
7802  1
7803  0
7804  0
7805  0
7806  0
7807  1
7808  1
7809  0
7810  0
7811  2
7812  0
7813  0
7814  0
7815  0
7816  0
7817  0
7818  1
7819  0
7820  0
7821  1
7822  0
7823  0
7824  0
7825  0
7826  0
7827  0
7828  0
7829  0
7830  0
7831  0
7832  0
7833  0
7834  0
7835  0
7836  0
7837  0
7838  0
7839  1
7840  0
7841  0
7842  0
7843  0
7844  1
7845  0
7846  0
7847  0
7848  0
7849  2
7850  0
7851  0
7852  0
7853  0
7854  2
7855  0
7856  1
7857  1
7858  0
7859  1
7860  0
7861  1
7862  1
7863  0
7864  0
7865  0
7866  1
7867  0
7868  0
7869  0
7870  1
7871  2
7872  0
7873  1
7874  1
7875  0
7876  2
7877  1
7878  0
7879  0
7880  0
7881  0
7882  1
7883  0
7884  1
7885  1
7886  0
7887  0
7888  0
7889  0
7890  0
7891  0
7892  0
7893  0
7894  1
7895  0
7896  0
7897  0
7898  0
7899  0
7900  1
7901  1
7902  2
7903  0
7904  0
7905  0
7906  0
7907  0
7908  1
7909  0
7910  0
7911  0
7912  0
7913  0
7914  2
7915  0
7916  1
7917  0
7918  0
7919  1
7920  0
7921  0
7922  0
7923  1
7924  0
7925  0
7926  1
7927  0
7928  0
7929  0
7930  0
7931  0
7932  0
7933  1
7934  1
7935  0
7936  0
7937  2
7938  2
7939  0
7940  0
7941  1
7942  0
7943  0
7944  0
7945  0
7946  0
7947  0
7948  0
7949  0
7950  1
7951  0
7952  1
7953  1
7954  0
7955  0
7956  1
7957  0
7958  0
7959  0
7960  0
7961  1
7962  0
7963  0
7964  1
7965  1
7966  0
7967  0
7968  0
7969  0
7970  0
7971  0
7972  0
7973  0
7974  0
7975  1
7976  0
7977  2
7978  0
7979  1
7980  0
7981  1
7982  1
7983  1
7984  0
7985  1
7986  1
7987  0
7988  0
7989  0
7990  2
7991  0
7992  0
7993  0
7994  0
7995  2
7996  0
7997  1
7998  0
7999  0
8000  0
8001  0
8002  0
8003  0
8004  0
8005  0
8006  0
8007  0
8008  0
8009  0
8010  0
8011  0
8012  0
8013  2
8014  0
8015  0
8016  1
8017  1
8018  1
8019  0
8020  0
8021  3
8022  1
8023  0
8024  0
8025  2
8026  1
8027  0
8028  1
8029  1
8030  0
8031  1
8032  0
8033  1
8034  0
8035  0
8036  2
8037  3
8038  4
8039  2
8040  2
8041  3
8042  4
8043  0
8044  1
8045  1
8046  1
8047  2
8048  1
8049  0
8050  0
8051  1
8052  1
8053  0
8054  1
8055  1
8056  0
8057  0
8058  0
8059  0
8060  1
8061  1
8062  0
8063  0
8064  0
8065  0
8066  0
8067  1
8068  1
8069  0
8070  0
8071  0
8072  0
8073  0
8074  2
8075  0
8076  0
8077  0
8078  0
8079  1
8080  2
8081  0
8082  0
8083  0
8084  0
8085  0
8086  0
8087  0
8088  0
8089  0
8090  0
8091  1
8092  1
8093  0
8094  1
8095  0
8096  0
8097  0
8098  0
8099  0
8100  0
8101  0
8102  0
8103  0
8104  2
8105  0
8106  0
8107  1
8108  0
8109  0
8110  0
8111  0
8112  0
8113  0
8114  0
8115  0
8116  0
8117  1
8118  1
8119  0
8120  0
8121  0
8122  1
8123  0
8124  0
8125  0
8126  1
8127  0
8128  0
8129  0
8130  0
8131  0
8132  0
8133  0
8134  0
8135  0
8136  0
8137  0
8138  0
8139  0
8140  1
8141  0
8142  0
8143  0
8144  0
8145  0
8146  0
8147  0
8148  1
8149  0
8150  0
8151  0
8152  0
8153  1
8154  0
8155  0
8156  0
8157  1
8158  0
8159  0
8160  0
8161  0
8162  0
8163  0
8164  0
8165  0
8166  0
8167  0
8168  0
8169  1
8170  0
8171  1
8172  1
8173  0
8174  0
8175  0
8176  0
8177  0
8178  0
8179  0
8180  0
8181  0
8182  0
8183  2
8184  0
8185  1
8186  0
8187  0
8188  0
8189  0
8190  0
8191  0
