0  29
1  0
2  0
3  0
4  1
5  0
6  0
7  0
8  0
9  1
10  0
11  0
12  0
13  0
14  1
15  0
16  0
17  0
18  0
19  0
20  0
21  0
22  1
23  0
24  0
25  0
26  0
27  2
28  0
29  0
30  0
31  0
32  0
33  0
34  0
35  1
36  1
37  0
38  0
39  0
40  0
41  0
42  0
43  0
44  0
45  0
46  0
47  0
48  0
49  0
50  0
51  0
52  1
53  0
54  0
55  0
56  0
57  0
58  0
59  0
60  0
61  0
62  0
63  0
64  0
65  0
66  0
67  0
68  0
69  0
70  0
71  0
72  0
73  0
74  0
75  0
76  0
77  0
78  0
79  0
80  0
81  0
82  0
83  1
84  0
85  0
86  0
87  0
88  0
89  0
90  0
91  0
92  0
93  0
94  0
95  0
96  0
97  0
98  0
99  0
100  0
101  0
102  0
103  0
104  0
105  0
106  0
107  0
108  0
109  0
110  0
111  0
112  0
113  0
114  0
115  0
116  0
117  0
118  0
119  0
120  0
121  1
122  0
123  0
124  0
125  0
126  0
127  0
128  0
129  0
130  0
131  0
132  0
133  0
134  1
135  0
136  0
137  0
138  0
139  1
140  0
141  0
142  0
143  0
144  0
145  0
146  0
147  0
148  0
149  0
150  0
151  0
152  0
153  0
154  0
155  0
156  0
157  0
158  0
159  0
160  0
161  0
162  0
163  0
164  0
165  0
166  0
167  0
168  0
169  0
170  0
171  0
172  0
173  0
174  0
175  0
176  0
177  0
178  0
179  0
180  0
181  1
182  0
183  1
184  0
185  1
186  1
187  0
188  0
189  0
190  1
191  1
192  0
193  1
194  0
195  0
196  0
197  0
198  0
199  0
200  0
201  0
202  0
203  0
204  0
205  0
206  0
207  0
208  0
209  0
210  0
211  0
212  1
213  1
214  0
215  1
216  0
217  1
218  0
219  0
220  1
221  1
222  1
223  0
224  1
225  0
226  0
227  0
228  0
229  1
230  0
231  0
232  1
233  0
234  0
235  0
236  1
237  0
238  0
239  0
240  2
241  0
242  0
243  0
244  1
245  1
246  0
247  1
248  1
249  0
250  1
251  1
252  2
253  2
254  12
255  8
256  4
257  11
258  18
259  19
260  23
261  35
262  38
263  39
264  37
265  58
266  53
267  58
268  78
269  77
270  96
271  102
272  94
273  112
274  136
275  120
276  126
277  151
278  124
279  174
280  154
281  168
282  179
283  194
284  176
285  173
286  216
287  209
288  228
289  228
290  215
291  234
292  238
293  233
294  257
295  265
296  264
297  273
298  250
299  295
300  285
301  278
302  316
303  292
304  284
305  318
306  301
307  319
308  318
309  346
310  307
311  353
312  319
313  323
314  309
315  333
316  333
317  342
318  353
319  370
320  356
321  354
322  374
323  354
324  344
325  376
326  372
327  389
328  377
329  374
330  410
331  397
332  421
333  385
334  415
335  395
336  402
337  402
338  415
339  429
340  397
341  417
342  412
343  425
344  445
345  422
346  410
347  400
348  432
349  462
350  410
351  441
352  436
353  392
354  405
355  412
356  468
357  416
358  460
359  458
360  423
361  474
362  430
363  392
364  465
365  412
366  433
367  403
368  472
369  401
370  444
371  438
372  485
373  444
374  429
375  481
376  477
377  452
378  472
379  461
380  468
381  456
382  459
383  497
384  474
385  502
386  426
387  460
388  432
389  434
390  491
391  463
392  457
393  438
394  466
395  480
396  473
397  472
398  498
399  472
400  472
401  514
402  477
403  507
404  506
405  463
406  460
407  494
408  499
409  501
410  510
411  498
412  543
413  508
414  528
415  517
416  495
417  490
418  509
419  506
420  536
421  499
422  571
423  538
424  484
425  506
426  551
427  616
428  582
429  537
430  572
431  578
432  708
433  869
434  1023
435  1249
436  1578
437  1759
438  1818
439  1823
440  1430
441  1134
442  913
443  725
444  592
445  555
446  497
447  586
448  525
449  569
450  584
451  561
452  597
453  536
454  518
455  541
456  519
457  532
458  574
459  548
460  582
461  563
462  596
463  520
464  584
465  587
466  608
467  605
468  586
469  574
470  608
471  590
472  591
473  616
474  650
475  619
476  628
477  690
478  641
479  662
480  630
481  575
482  646
483  632
484  640
485  684
486  655
487  711
488  716
489  694
490  712
491  685
492  764
493  764
494  721
495  717
496  755
497  748
498  721
499  726
500  743
501  761
502  779
503  781
504  754
505  782
506  759
507  711
508  821
509  756
510  774
511  755
512  781
513  794
514  820
515  734
516  810
517  853
518  818
519  830
520  850
521  823
522  807
523  810
524  836
525  845
526  850
527  807
528  875
529  866
530  866
531  903
532  833
533  881
534  887
535  943
536  960
537  917
538  1019
539  968
540  974
541  993
542  1069
543  1005
544  996
545  980
546  1012
547  1092
548  1088
549  1196
550  1294
551  1348
552  1459
553  1499
554  1646
555  1744
556  1626
557  1572
558  1357
559  1238
560  1078
561  1091
562  1010
563  1017
564  1084
565  1015
566  1082
567  1227
568  1126
569  1131
570  1121
571  1137
572  1205
573  1158
574  1207
575  1197
576  1186
577  1163
578  1216
579  1281
580  1314
581  1297
582  1386
583  1445
584  1615
585  1721
586  1804
587  1791
588  1712
589  1559
590  1468
591  1475
592  1613
593  1827
594  2396
595  3371
596  5173
597  7679
598  10717
599  13957
600  15293
601  15168
602  13551
603  10557
604  7599
605  5140
606  3642
607  2917
608  3009
609  3681
610  4534
611  4941
612  5137
613  4502
614  3603
615  2789
616  2034
617  1553
618  1429
619  1312
620  1316
621  1229
622  1222
623  1212
624  1284
625  1408
626  1761
627  2320
628  3404
629  4812
630  6654
631  8213
632  8530
633  7957
634  6469
635  4525
636  2977
637  1933
638  1310
639  1096
640  1052
641  961
642  1000
643  912
644  924
645  888
646  919
647  906
648  856
649  888
650  909
651  977
652  1021
653  944
654  959
655  992
656  913
657  953
658  945
659  956
660  948
661  961
662  975
663  962
664  975
665  1001
666  1128
667  1037
668  1124
669  1148
670  1129
671  1149
672  1119
673  1046
674  1040
675  952
676  993
677  984
678  932
679  976
680  1011
681  1000
682  1110
683  1054
684  1059
685  1187
686  1226
687  1290
688  1473
689  1456
690  1557
691  1484
692  1558
693  1841
694  2108
695  2474
696  2684
697  3016
698  3369
699  3454
700  3720
701  3644
702  3263
703  2598
704  2235
705  1959
706  1918
707  2111
708  2330
709  2360
710  2184
711  1826
712  1502
713  1423
714  1389
715  1553
716  1755
717  1978
718  1898
719  1845
720  1517
721  1459
722  1231
723  1073
724  863
725  747
726  685
727  647
728  575
729  570
730  554
731  540
732  606
733  562
734  576
735  571
736  603
737  578
738  556
739  592
740  613
741  560
742  573
743  519
744  562
745  555
746  556
747  579
748  649
749  550
750  629
751  642
752  655
753  569
754  659
755  562
756  545
757  553
758  539
759  567
760  566
761  566
762  604
763  579
764  591
765  585
766  562
767  613
768  542
769  577
770  578
771  563
772  598
773  580
774  600
775  600
776  547
777  609
778  605
779  593
780  581
781  609
782  575
783  548
784  563
785  594
786  557
787  566
788  569
789  594
790  582
791  568
792  552
793  594
794  579
795  552
796  587
797  532
798  577
799  582
800  574
801  638
802  567
803  637
804  617
805  644
806  650
807  694
808  646
809  627
810  569
811  575
812  568
813  536
814  567
815  559
816  549
817  580
818  558
819  590
820  558
821  592
822  588
823  575
824  543
825  575
826  583
827  594
828  586
829  596
830  598
831  589
832  586
833  562
834  606
835  598
836  639
837  537
838  570
839  571
840  584
841  551
842  589
843  547
844  597
845  549
846  579
847  601
848  571
849  559
850  573
851  592
852  550
853  608
854  599
855  573
856  614
857  616
858  590
859  573
860  558
861  587
862  572
863  584
864  618
865  631
866  716
867  824
868  1010
869  1377
870  1841
871  2172
872  2404
873  2217
874  1799
875  1321
876  916
877  705
878  595
879  551
880  573
881  526
882  541
883  546
884  583
885  511
886  552
887  579
888  525
889  575
890  567
891  532
892  602
893  545
894  561
895  542
896  556
897  584
898  529
899  513
900  563
901  499
902  577
903  554
904  588
905  524
906  531
907  582
908  528
909  596
910  549
911  561
912  557
913  576
914  536
915  589
916  540
917  540
918  579
919  621
920  585
921  549
922  556
923  546
924  522
925  537
926  558
927  535
928  521
929  558
930  512
931  531
932  552
933  583
934  557
935  592
936  492
937  567
938  564
939  524
940  523
941  511
942  528
943  569
944  556
945  490
946  512
947  516
948  540
949  551
950  536
951  545
952  550
953  509
954  554
955  525
956  499
957  529
958  530
959  522
960  529
961  534
962  460
963  512
964  508
965  497
966  539
967  562
968  557
969  627
970  713
971  842
972  1086
973  1346
974  1449
975  1494
976  1332
977  1059
978  875
979  689
980  556
981  527
982  539
983  532
984  503
985  529
986  504
987  497
988  506
989  543
990  548
991  536
992  511
993  489
994  504
995  517
996  527
997  501
998  503
999  512
1000  475
1001  452
1002  565
1003  511
1004  548
1005  470
1006  498
1007  487
1008  549
1009  525
1010  525
1011  473
1012  494
1013  519
1014  501
1015  495
1016  547
1017  496
1018  494
1019  483
1020  502
1021  511
1022  525
1023  496
1024  514
1025  493
1026  492
1027  488
1028  479
1029  498
1030  552
1031  544
1032  511
1033  513
1034  535
1035  482
1036  447
1037  473
1038  525
1039  491
1040  517
1041  494
1042  502
1043  508
1044  497
1045  511
1046  484
1047  514
1048  526
1049  483
1050  480
1051  510
1052  470
1053  494
1054  506
1055  507
1056  460
1057  501
1058  483
1059  489
1060  510
1061  494
1062  512
1063  539
1064  491
1065  465
1066  482
1067  461
1068  483
1069  523
1070  493
1071  503
1072  526
1073  510
1074  553
1075  605
1076  564
1077  579
1078  533
1079  539
1080  531
1081  512
1082  613
1083  624
1084  842
1085  1168
1086  1941
1087  3323
1088  5310
1089  8030
1090  10819
1091  12223
1092  12219
1093  10091
1094  7124
1095  4300
1096  2288
1097  1171
1098  678
1099  525
1100  400
1101  394
1102  429
1103  404
1104  383
1105  371
1106  375
1107  372
1108  390
1109  383
1110  388
1111  392
1112  377
1113  395
1114  371
1115  349
1116  423
1117  391
1118  396
1119  375
1120  386
1121  375
1122  378
1123  376
1124  386
1125  401
1126  385
1127  408
1128  369
1129  347
1130  378
1131  367
1132  367
1133  391
1134  382
1135  415
1136  441
1137  469
1138  490
1139  483
1140  486
1141  453
1142  437
1143  417
1144  413
1145  369
1146  346
1147  339
1148  375
1149  369
1150  328
1151  339
1152  360
1153  339
1154  352
1155  329
1156  339
1157  342
1158  396
1159  385
1160  390
1161  368
1162  389
1163  345
1164  367
1165  380
1166  341
1167  347
1168  329
1169  372
1170  346
1171  397
1172  412
1173  420
1174  499
1175  503
1176  536
1177  573
1178  526
1179  503
1180  451
1181  417
1182  415
1183  353
1184  355
1185  353
1186  359
1187  415
1188  439
1189  601
1190  782
1191  1002
1192  1252
1193  1431
1194  1434
1195  1123
1196  883
1197  665
1198  502
1199  407
1200  334
1201  350
1202  341
1203  321
1204  334
1205  324
1206  325
1207  314
1208  329
1209  356
1210  334
1211  311
1212  336
1213  323
1214  342
1215  304
1216  319
1217  313
1218  334
1219  263
1220  349
1221  342
1222  346
1223  315
1224  311
1225  306
1226  318
1227  310
1228  302
1229  328
1230  320
1231  322
1232  330
1233  315
1234  292
1235  335
1236  322
1237  318
1238  280
1239  297
1240  303
1241  332
1242  305
1243  310
1244  298
1245  297
1246  318
1247  322
1248  334
1249  348
1250  302
1251  320
1252  290
1253  273
1254  304
1255  323
1256  285
1257  309
1258  300
1259  324
1260  335
1261  320
1262  267
1263  283
1264  292
1265  302
1266  312
1267  274
1268  283
1269  320
1270  313
1271  322
1272  292
1273  311
1274  322
1275  322
1276  316
1277  340
1278  328
1279  332
1280  326
1281  310
1282  275
1283  279
1284  300
1285  301
1286  297
1287  278
1288  273
1289  293
1290  322
1291  287
1292  278
1293  289
1294  276
1295  301
1296  290
1297  278
1298  284
1299  280
1300  261
1301  280
1302  317
1303  331
1304  354
1305  331
1306  336
1307  352
1308  356
1309  296
1310  318
1311  282
1312  297
1313  303
1314  306
1315  288
1316  285
1317  274
1318  261
1319  289
1320  261
1321  287
1322  298
1323  254
1324  276
1325  261
1326  282
1327  285
1328  291
1329  275
1330  285
1331  259
1332  282
1333  276
1334  265
1335  245
1336  294
1337  287
1338  303
1339  252
1340  296
1341  253
1342  271
1343  272
1344  242
1345  252
1346  255
1347  282
1348  267
1349  263
1350  291
1351  268
1352  286
1353  256
1354  262
1355  226
1356  252
1357  253
1358  267
1359  251
1360  267
1361  266
1362  281
1363  264
1364  324
1365  272
1366  296
1367  303
1368  289
1369  284
1370  268
1371  273
1372  262
1373  268
1374  256
1375  293
1376  242
1377  255
1378  235
1379  235
1380  253
1381  275
1382  253
1383  248
1384  248
1385  275
1386  293
1387  246
1388  264
1389  234
1390  253
1391  224
1392  239
1393  273
1394  236
1395  265
1396  237
1397  239
1398  237
1399  236
1400  257
1401  223
1402  240
1403  263
1404  241
1405  246
1406  262
1407  259
1408  264
1409  250
1410  255
1411  241
1412  244
1413  238
1414  218
1415  240
1416  242
1417  262
1418  262
1419  267
1420  265
1421  266
1422  270
1423  247
1424  226
1425  248
1426  253
1427  239
1428  255
1429  229
1430  256
1431  210
1432  251
1433  243
1434  231
1435  216
1436  231
1437  223
1438  235
1439  236
1440  236
1441  204
1442  229
1443  224
1444  216
1445  221
1446  246
1447  238
1448  245
1449  217
1450  234
1451  220
1452  234
1453  249
1454  241
1455  212
1456  213
1457  211
1458  211
1459  209
1460  212
1461  253
1462  231
1463  244
1464  305
1465  350
1466  415
1467  452
1468  535
1469  500
1470  498
1471  411
1472  334
1473  287
1474  245
1475  236
1476  207
1477  216
1478  242
1479  233
1480  234
1481  193
1482  198
1483  230
1484  206
1485  218
1486  236
1487  200
1488  206
1489  200
1490  207
1491  216
1492  216
1493  211
1494  198
1495  207
1496  229
1497  207
1498  229
1499  217
1500  210
1501  222
1502  194
1503  200
1504  225
1505  234
1506  197
1507  209
1508  204
1509  218
1510  218
1511  228
1512  212
1513  214
1514  217
1515  248
1516  191
1517  214
1518  187
1519  217
1520  198
1521  199
1522  206
1523  174
1524  230
1525  219
1526  209
1527  198
1528  201
1529  235
1530  218
1531  232
1532  195
1533  212
1534  221
1535  207
1536  188
1537  189
1538  210
1539  202
1540  223
1541  204
1542  211
1543  188
1544  190
1545  215
1546  192
1547  189
1548  176
1549  183
1550  212
1551  208
1552  177
1553  185
1554  181
1555  186
1556  208
1557  189
1558  203
1559  212
1560  197
1561  213
1562  178
1563  232
1564  209
1565  201
1566  200
1567  188
1568  188
1569  186
1570  168
1571  191
1572  197
1573  155
1574  200
1575  199
1576  220
1577  196
1578  186
1579  180
1580  197
1581  178
1582  204
1583  209
1584  181
1585  197
1586  178
1587  192
1588  164
1589  199
1590  196
1591  197
1592  191
1593  168
1594  210
1595  168
1596  169
1597  174
1598  172
1599  162
1600  202
1601  188
1602  176
1603  174
1604  196
1605  187
1606  175
1607  185
1608  174
1609  172
1610  202
1611  171
1612  194
1613  173
1614  150
1615  169
1616  162
1617  180
1618  169
1619  198
1620  165
1621  169
1622  153
1623  190
1624  180
1625  171
1626  159
1627  156
1628  185
1629  170
1630  191
1631  174
1632  189
1633  180
1634  161
1635  186
1636  179
1637  184
1638  163
1639  178
1640  185
1641  170
1642  178
1643  139
1644  188
1645  160
1646  170
1647  174
1648  173
1649  176
1650  211
1651  189
1652  208
1653  203
1654  193
1655  179
1656  178
1657  170
1658  175
1659  189
1660  221
1661  194
1662  197
1663  175
1664  192
1665  167
1666  174
1667  188
1668  156
1669  155
1670  165
1671  137
1672  161
1673  177
1674  131
1675  157
1676  180
1677  173
1678  150
1679  147
1680  161
1681  164
1682  168
1683  178
1684  179
1685  175
1686  179
1687  164
1688  161
1689  179
1690  141
1691  177
1692  154
1693  179
1694  160
1695  148
1696  156
1697  144
1698  161
1699  148
1700  168
1701  163
1702  156
1703  171
1704  139
1705  164
1706  139
1707  169
1708  139
1709  164
1710  135
1711  166
1712  177
1713  150
1714  148
1715  167
1716  146
1717  147
1718  136
1719  169
1720  166
1721  164
1722  148
1723  166
1724  149
1725  161
1726  172
1727  168
1728  160
1729  160
1730  158
1731  151
1732  144
1733  159
1734  158
1735  137
1736  167
1737  172
1738  151
1739  141
1740  137
1741  178
1742  148
1743  144
1744  143
1745  144
1746  143
1747  173
1748  150
1749  159
1750  159
1751  143
1752  136
1753  167
1754  141
1755  152
1756  142
1757  144
1758  152
1759  157
1760  148
1761  147
1762  155
1763  149
1764  161
1765  158
1766  127
1767  146
1768  159
1769  173
1770  159
1771  144
1772  149
1773  136
1774  153
1775  138
1776  141
1777  149
1778  155
1779  133
1780  151
1781  149
1782  142
1783  132
1784  154
1785  134
1786  152
1787  137
1788  143
1789  133
1790  144
1791  170
1792  148
1793  146
1794  128
1795  142
1796  136
1797  144
1798  141
1799  146
1800  130
1801  128
1802  126
1803  123
1804  138
1805  155
1806  157
1807  142
1808  151
1809  138
1810  139
1811  127
1812  134
1813  129
1814  139
1815  133
1816  154
1817  135
1818  154
1819  138
1820  160
1821  124
1822  134
1823  132
1824  151
1825  150
1826  122
1827  135
1828  127
1829  145
1830  117
1831  158
1832  129
1833  151
1834  130
1835  136
1836  146
1837  138
1838  128
1839  131
1840  139
1841  120
1842  126
1843  150
1844  147
1845  138
1846  133
1847  132
1848  151
1849  139
1850  140
1851  129
1852  149
1853  131
1854  146
1855  133
1856  138
1857  139
1858  128
1859  136
1860  119
1861  121
1862  134
1863  162
1864  139
1865  128
1866  127
1867  139
1868  119
1869  114
1870  139
1871  132
1872  122
1873  137
1874  127
1875  113
1876  137
1877  125
1878  137
1879  127
1880  139
1881  127
1882  130
1883  131
1884  144
1885  146
1886  134
1887  135
1888  125
1889  118
1890  124
1891  141
1892  132
1893  131
1894  121
1895  117
1896  111
1897  115
1898  124
1899  126
1900  146
1901  139
1902  112
1903  125
1904  141
1905  129
1906  130
1907  138
1908  130
1909  130
1910  128
1911  116
1912  132
1913  114
1914  114
1915  130
1916  130
1917  129
1918  125
1919  131
1920  136
1921  134
1922  124
1923  114
1924  136
1925  125
1926  121
1927  112
1928  133
1929  115
1930  111
1931  124
1932  124
1933  129
1934  123
1935  118
1936  110
1937  126
1938  118
1939  117
1940  134
1941  121
1942  120
1943  116
1944  118
1945  136
1946  112
1947  131
1948  122
1949  142
1950  153
1951  153
1952  134
1953  187
1954  157
1955  176
1956  178
1957  150
1958  141
1959  125
1960  115
1961  136
1962  133
1963  127
1964  125
1965  115
1966  110
1967  129
1968  103
1969  138
1970  109
1971  123
1972  116
1973  113
1974  108
1975  106
1976  134
1977  110
1978  117
1979  104
1980  115
1981  103
1982  121
1983  124
1984  89
1985  130
1986  118
1987  108
1988  119
1989  99
1990  96
1991  114
1992  95
1993  103
1994  123
1995  114
1996  112
1997  117
1998  138
1999  122
2000  122
2001  101
2002  90
2003  98
2004  107
2005  120
2006  92
2007  122
2008  114
2009  96
2010  121
2011  103
2012  114
2013  129
2014  104
2015  114
2016  110
2017  102
2018  97
2019  101
2020  118
2021  106
2022  102
2023  109
2024  98
2025  125
2026  113
2027  123
2028  99
2029  106
2030  108
2031  125
2032  109
2033  125
2034  102
2035  107
2036  109
2037  109
2038  110
2039  108
2040  117
2041  113
2042  126
2043  127
2044  121
2045  120
2046  120
2047  131
2048  104
2049  102
2050  104
2051  104
2052  101
2053  114
2054  118
2055  119
2056  96
2057  119
2058  119
2059  113
2060  101
2061  109
2062  119
2063  94
2064  111
2065  103
2066  103
2067  100
2068  118
2069  95
2070  101
2071  98
2072  102
2073  96
2074  103
2075  119
2076  102
2077  93
2078  94
2079  100
2080  113
2081  118
2082  120
2083  84
2084  104
2085  104
2086  94
2087  104
2088  115
2089  81
2090  94
2091  109
2092  122
2093  87
2094  98
2095  115
2096  111
2097  110
2098  113
2099  95
2100  112
2101  93
2102  84
2103  114
2104  121
2105  96
2106  112
2107  90
2108  98
2109  110
2110  104
2111  92
2112  116
2113  87
2114  97
2115  101
2116  106
2117  105
2118  99
2119  96
2120  107
2121  120
2122  86
2123  107
2124  105
2125  91
2126  79
2127  87
2128  111
2129  74
2130  97
2131  92
2132  98
2133  88
2134  109
2135  102
2136  105
2137  87
2138  111
2139  108
2140  104
2141  112
2142  99
2143  102
2144  117
2145  92
2146  118
2147  102
2148  97
2149  92
2150  95
2151  85
2152  92
2153  81
2154  101
2155  100
2156  118
2157  93
2158  94
2159  84
2160  97
2161  103
2162  78
2163  79
2164  92
2165  101
2166  114
2167  91
2168  100
2169  90
2170  119
2171  109
2172  78
2173  86
2174  112
2175  87
2176  105
2177  84
2178  89
2179  94
2180  107
2181  84
2182  97
2183  113
2184  107
2185  86
2186  93
2187  113
2188  75
2189  86
2190  105
2191  88
2192  98
2193  105
2194  93
2195  98
2196  83
2197  92
2198  96
2199  99
2200  86
2201  91
2202  95
2203  89
2204  96
2205  90
2206  85
2207  88
2208  80
2209  94
2210  96
2211  88
2212  84
2213  97
2214  84
2215  84
2216  104
2217  68
2218  98
2219  86
2220  104
2221  95
2222  110
2223  85
2224  101
2225  97
2226  80
2227  111
2228  86
2229  92
2230  86
2231  93
2232  105
2233  93
2234  99
2235  76
2236  76
2237  105
2238  97
2239  89
2240  97
2241  82
2242  77
2243  96
2244  79
2245  86
2246  91
2247  88
2248  103
2249  89
2250  99
2251  95
2252  102
2253  91
2254  100
2255  93
2256  91
2257  97
2258  89
2259  82
2260  74
2261  77
2262  72
2263  99
2264  89
2265  85
2266  77
2267  75
2268  83
2269  92
2270  92
2271  75
2272  88
2273  76
2274  89
2275  88
2276  83
2277  99
2278  76
2279  102
2280  100
2281  74
2282  85
2283  93
2284  95
2285  102
2286  68
2287  75
2288  85
2289  91
2290  92
2291  79
2292  85
2293  86
2294  68
2295  71
2296  76
2297  104
2298  86
2299  88
2300  85
2301  96
2302  95
2303  73
2304  77
2305  97
2306  86
2307  94
2308  87
2309  94
2310  93
2311  72
2312  83
2313  81
2314  84
2315  80
2316  86
2317  59
2318  86
2319  78
2320  89
2321  84
2322  80
2323  67
2324  88
2325  79
2326  97
2327  77
2328  90
2329  98
2330  82
2331  79
2332  91
2333  74
2334  89
2335  84
2336  67
2337  90
2338  70
2339  79
2340  112
2341  91
2342  98
2343  86
2344  80
2345  63
2346  84
2347  87
2348  91
2349  83
2350  70
2351  75
2352  87
2353  69
2354  60
2355  91
2356  91
2357  78
2358  70
2359  85
2360  84
2361  79
2362  66
2363  78
2364  82
2365  74
2366  85
2367  79
2368  76
2369  83
2370  84
2371  82
2372  77
2373  74
2374  78
2375  83
2376  79
2377  85
2378  80
2379  101
2380  74
2381  87
2382  79
2383  88
2384  69
2385  79
2386  79
2387  89
2388  74
2389  82
2390  85
2391  61
2392  80
2393  76
2394  93
2395  87
2396  85
2397  60
2398  83
2399  77
2400  76
2401  87
2402  72
2403  81
2404  87
2405  81
2406  86
2407  83
2408  83
2409  61
2410  78
2411  73
2412  71
2413  61
2414  76
2415  87
2416  66
2417  86
2418  78
2419  70
2420  76
2421  89
2422  72
2423  94
2424  66
2425  70
2426  67
2427  79
2428  65
2429  67
2430  67
2431  72
2432  81
2433  76
2434  78
2435  61
2436  83
2437  72
2438  75
2439  68
2440  58
2441  64
2442  83
2443  88
2444  85
2445  82
2446  79
2447  75
2448  86
2449  76
2450  75
2451  87
2452  93
2453  71
2454  88
2455  62
2456  72
2457  62
2458  66
2459  75
2460  89
2461  74
2462  78
2463  82
2464  65
2465  82
2466  66
2467  71
2468  84
2469  72
2470  84
2471  66
2472  78
2473  75
2474  82
2475  74
2476  86
2477  75
2478  65
2479  68
2480  76
2481  76
2482  71
2483  80
2484  74
2485  68
2486  89
2487  72
2488  56
2489  68
2490  80
2491  66
2492  80
2493  59
2494  68
2495  83
2496  77
2497  84
2498  71
2499  75
2500  85
2501  74
2502  70
2503  71
2504  83
2505  78
2506  79
2507  74
2508  77
2509  71
2510  81
2511  81
2512  62
2513  73
2514  72
2515  74
2516  68
2517  79
2518  74
2519  72
2520  66
2521  77
2522  77
2523  65
2524  69
2525  77
2526  79
2527  69
2528  76
2529  82
2530  80
2531  83
2532  82
2533  68
2534  69
2535  79
2536  72
2537  84
2538  63
2539  60
2540  56
2541  76
2542  57
2543  87
2544  69
2545  85
2546  76
2547  74
2548  78
2549  91
2550  71
2551  78
2552  79
2553  81
2554  62
2555  77
2556  77
2557  77
2558  74
2559  71
2560  81
2561  66
2562  78
2563  66
2564  79
2565  52
2566  94
2567  60
2568  75
2569  80
2570  70
2571  83
2572  77
2573  56
2574  75
2575  78
2576  85
2577  80
2578  65
2579  91
2580  67
2581  79
2582  68
2583  70
2584  71
2585  60
2586  67
2587  67
2588  85
2589  77
2590  69
2591  71
2592  65
2593  86
2594  88
2595  79
2596  88
2597  78
2598  81
2599  58
2600  67
2601  70
2602  64
2603  74
2604  76
2605  68
2606  65
2607  63
2608  72
2609  65
2610  58
2611  69
2612  64
2613  79
2614  83
2615  66
2616  63
2617  61
2618  66
2619  82
2620  64
2621  64
2622  68
2623  63
2624  72
2625  80
2626  64
2627  71
2628  79
2629  69
2630  60
2631  54
2632  63
2633  55
2634  58
2635  51
2636  73
2637  85
2638  63
2639  58
2640  83
2641  76
2642  58
2643  56
2644  58
2645  79
2646  71
2647  75
2648  55
2649  79
2650  66
2651  75
2652  70
2653  47
2654  74
2655  81
2656  73
2657  65
2658  84
2659  56
2660  76
2661  48
2662  58
2663  73
2664  71
2665  81
2666  65
2667  61
2668  80
2669  63
2670  58
2671  65
2672  74
2673  53
2674  56
2675  65
2676  73
2677  66
2678  72
2679  66
2680  72
2681  58
2682  76
2683  58
2684  79
2685  46
2686  64
2687  74
2688  56
2689  71
2690  61
2691  69
2692  65
2693  87
2694  82
2695  59
2696  70
2697  73
2698  63
2699  67
2700  67
2701  66
2702  65
2703  77
2704  64
2705  66
2706  78
2707  70
2708  59
2709  69
2710  66
2711  74
2712  60
2713  68
2714  72
2715  65
2716  79
2717  66
2718  66
2719  74
2720  63
2721  75
2722  67
2723  58
2724  58
2725  77
2726  62
2727  75
2728  67
2729  69
2730  54
2731  49
2732  80
2733  70
2734  77
2735  65
2736  58
2737  64
2738  76
2739  66
2740  68
2741  58
2742  50
2743  66
2744  60
2745  74
2746  70
2747  61
2748  92
2749  72
2750  66
2751  71
2752  83
2753  70
2754  87
2755  63
2756  87
2757  75
2758  69
2759  57
2760  71
2761  72
2762  87
2763  79
2764  72
2765  74
2766  70
2767  72
2768  71
2769  87
2770  84
2771  71
2772  70
2773  64
2774  63
2775  69
2776  80
2777  74
2778  72
2779  62
2780  55
2781  73
2782  73
2783  86
2784  70
2785  87
2786  69
2787  53
2788  59
2789  75
2790  76
2791  71
2792  65
2793  66
2794  82
2795  67
2796  43
2797  71
2798  75
2799  67
2800  66
2801  66
2802  71
2803  59
2804  48
2805  60
2806  50
2807  53
2808  46
2809  65
2810  60
2811  56
2812  73
2813  60
2814  48
2815  56
2816  59
2817  58
2818  69
2819  42
2820  62
2821  54
2822  71
2823  60
2824  75
2825  65
2826  65
2827  60
2828  58
2829  64
2830  65
2831  68
2832  67
2833  79
2834  60
2835  63
2836  67
2837  48
2838  54
2839  72
2840  66
2841  71
2842  65
2843  51
2844  64
2845  54
2846  61
2847  74
2848  81
2849  75
2850  72
2851  53
2852  59
2853  61
2854  55
2855  64
2856  64
2857  58
2858  52
2859  70
2860  72
2861  66
2862  61
2863  58
2864  67
2865  68
2866  54
2867  63
2868  58
2869  50
2870  63
2871  62
2872  69
2873  67
2874  62
2875  62
2876  70
2877  55
2878  63
2879  62
2880  65
2881  59
2882  59
2883  68
2884  45
2885  66
2886  65
2887  76
2888  52
2889  61
2890  56
2891  64
2892  65
2893  76
2894  61
2895  78
2896  59
2897  51
2898  48
2899  66
2900  62
2901  69
2902  68
2903  58
2904  53
2905  63
2906  67
2907  57
2908  54
2909  59
2910  59
2911  61
2912  54
2913  57
2914  66
2915  71
2916  46
2917  69
2918  57
2919  53
2920  49
2921  58
2922  64
2923  78
2924  53
2925  58
2926  61
2927  63
2928  77
2929  64
2930  72
2931  67
2932  50
2933  67
2934  68
2935  53
2936  58
2937  59
2938  50
2939  64
2940  67
2941  49
2942  45
2943  65
2944  51
2945  65
2946  69
2947  69
2948  51
2949  59
2950  62
2951  69
2952  67
2953  59
2954  66
2955  49
2956  73
2957  74
2958  69
2959  61
2960  55
2961  59
2962  55
2963  65
2964  55
2965  46
2966  66
2967  55
2968  47
2969  57
2970  40
2971  48
2972  59
2973  53
2974  61
2975  56
2976  71
2977  60
2978  63
2979  50
2980  50
2981  47
2982  73
2983  70
2984  59
2985  62
2986  59
2987  59
2988  54
2989  49
2990  59
2991  57
2992  70
2993  71
2994  57
2995  61
2996  70
2997  63
2998  61
2999  61
3000  66
3001  53
3002  57
3003  52
3004  62
3005  55
3006  65
3007  43
3008  61
3009  48
3010  62
3011  46
3012  57
3013  61
3014  62
3015  70
3016  64
3017  58
3018  62
3019  66
3020  76
3021  61
3022  67
3023  70
3024  71
3025  64
3026  52
3027  54
3028  54
3029  64
3030  63
3031  61
3032  48
3033  68
3034  60
3035  55
3036  56
3037  54
3038  57
3039  60
3040  69
3041  40
3042  55
3043  57
3044  60
3045  66
3046  77
3047  53
3048  55
3049  71
3050  62
3051  62
3052  62
3053  70
3054  66
3055  70
3056  77
3057  64
3058  71
3059  61
3060  44
3061  70
3062  75
3063  65
3064  58
3065  60
3066  66
3067  58
3068  59
3069  49
3070  64
3071  54
3072  61
3073  65
3074  72
3075  92
3076  100
3077  91
3078  87
3079  91
3080  82
3081  93
3082  87
3083  63
3084  68
3085  74
3086  58
3087  52
3088  57
3089  49
3090  72
3091  46
3092  57
3093  61
3094  50
3095  69
3096  88
3097  56
3098  51
3099  47
3100  66
3101  59
3102  57
3103  60
3104  60
3105  52
3106  62
3107  53
3108  62
3109  54
3110  45
3111  56
3112  51
3113  64
3114  54
3115  43
3116  56
3117  62
3118  61
3119  52
3120  48
3121  62
3122  47
3123  44
3124  54
3125  53
3126  48
3127  52
3128  61
3129  50
3130  40
3131  39
3132  54
3133  52
3134  67
3135  62
3136  48
3137  46
3138  45
3139  55
3140  50
3141  42
3142  58
3143  47
3144  67
3145  67
3146  75
3147  66
3148  75
3149  67
3150  59
3151  55
3152  64
3153  69
3154  61
3155  50
3156  61
3157  60
3158  59
3159  66
3160  75
3161  48
3162  53
3163  47
3164  42
3165  56
3166  58
3167  57
3168  58
3169  40
3170  48
3171  33
3172  46
3173  33
3174  53
3175  43
3176  51
3177  43
3178  51
3179  35
3180  53
3181  47
3182  52
3183  48
3184  59
3185  44
3186  57
3187  56
3188  36
3189  53
3190  40
3191  49
3192  51
3193  58
3194  39
3195  38
3196  53
3197  72
3198  50
3199  46
3200  51
3201  50
3202  59
3203  48
3204  48
3205  34
3206  45
3207  45
3208  60
3209  55
3210  59
3211  53
3212  57
3213  49
3214  50
3215  44
3216  49
3217  36
3218  42
3219  45
3220  46
3221  46
3222  35
3223  42
3224  65
3225  51
3226  39
3227  51
3228  46
3229  59
3230  43
3231  47
3232  47
3233  40
3234  36
3235  31
3236  57
3237  42
3238  50
3239  49
3240  34
3241  47
3242  40
3243  40
3244  41
3245  45
3246  45
3247  42
3248  72
3249  57
3250  40
3251  50
3252  60
3253  38
3254  49
3255  51
3256  48
3257  39
3258  40
3259  47
3260  45
3261  52
3262  31
3263  49
3264  49
3265  45
3266  36
3267  43
3268  47
3269  43
3270  44
3271  43
3272  42
3273  45
3274  42
3275  37
3276  61
3277  50
3278  50
3279  57
3280  68
3281  64
3282  68
3283  55
3284  72
3285  83
3286  76
3287  79
3288  76
3289  62
3290  61
3291  64
3292  48
3293  49
3294  54
3295  56
3296  57
3297  52
3298  38
3299  37
3300  37
3301  46
3302  34
3303  47
3304  45
3305  39
3306  46
3307  43
3308  50
3309  40
3310  57
3311  33
3312  32
3313  45
3314  42
3315  47
3316  47
3317  48
3318  46
3319  48
3320  45
3321  38
3322  47
3323  49
3324  45
3325  43
3326  47
3327  58
3328  43
3329  33
3330  38
3331  38
3332  39
3333  39
3334  48
3335  50
3336  56
3337  35
3338  47
3339  48
3340  43
3341  39
3342  31
3343  42
3344  44
3345  39
3346  58
3347  39
3348  43
3349  62
3350  49
3351  40
3352  36
3353  51
3354  57
3355  51
3356  40
3357  27
3358  35
3359  38
3360  41
3361  52
3362  40
3363  45
3364  36
3365  31
3366  41
3367  38
3368  37
3369  59
3370  42
3371  52
3372  41
3373  52
3374  42
3375  38
3376  36
3377  47
3378  37
3379  53
3380  47
3381  41
3382  53
3383  38
3384  42
3385  52
3386  39
3387  49
3388  29
3389  46
3390  44
3391  52
3392  49
3393  41
3394  38
3395  33
3396  49
3397  42
3398  59
3399  36
3400  44
3401  42
3402  35
3403  45
3404  41
3405  41
3406  47
3407  34
3408  33
3409  42
3410  41
3411  37
3412  47
3413  34
3414  42
3415  34
3416  34
3417  45
3418  49
3419  48
3420  49
3421  40
3422  39
3423  44
3424  38
3425  42
3426  38
3427  34
3428  52
3429  39
3430  29
3431  40
3432  43
3433  45
3434  39
3435  39
3436  44
3437  42
3438  31
3439  36
3440  29
3441  35
3442  40
3443  48
3444  30
3445  46
3446  32
3447  41
3448  34
3449  40
3450  38
3451  34
3452  47
3453  52
3454  41
3455  40
3456  38
3457  51
3458  45
3459  37
3460  42
3461  43
3462  28
3463  45
3464  37
3465  41
3466  38
3467  39
3468  35
3469  39
3470  52
3471  37
3472  36
3473  47
3474  43
3475  41
3476  28
3477  43
3478  40
3479  46
3480  48
3481  42
3482  55
3483  67
3484  35
3485  40
3486  42
3487  45
3488  35
3489  33
3490  38
3491  45
3492  48
3493  42
3494  39
3495  47
3496  48
3497  38
3498  47
3499  47
3500  40
3501  39
3502  44
3503  51
3504  34
3505  35
3506  29
3507  47
3508  39
3509  44
3510  51
3511  38
3512  48
3513  33
3514  30
3515  31
3516  40
3517  39
3518  46
3519  44
3520  38
3521  49
3522  31
3523  44
3524  34
3525  35
3526  43
3527  48
3528  38
3529  45
3530  30
3531  41
3532  42
3533  41
3534  42
3535  36
3536  26
3537  19
3538  36
3539  40
3540  44
3541  48
3542  33
3543  42
3544  39
3545  40
3546  41
3547  45
3548  37
3549  50
3550  48
3551  48
3552  37
3553  33
3554  42
3555  32
3556  44
3557  32
3558  39
3559  39
3560  36
3561  36
3562  54
3563  33
3564  45
3565  36
3566  38
3567  44
3568  37
3569  31
3570  45
3571  39
3572  49
3573  36
3574  37
3575  54
3576  33
3577  48
3578  44
3579  38
3580  51
3581  44
3582  39
3583  34
3584  36
3585  43
3586  38
3587  29
3588  44
3589  47
3590  44
3591  42
3592  50
3593  33
3594  41
3595  40
3596  47
3597  40
3598  53
3599  41
3600  25
3601  47
3602  53
3603  35
3604  47
3605  45
3606  35
3607  41
3608  38
3609  35
3610  36
3611  37
3612  39
3613  34
3614  43
3615  41
3616  40
3617  27
3618  34
3619  42
3620  32
3621  44
3622  50
3623  46
3624  43
3625  36
3626  42
3627  36
3628  45
3629  34
3630  43
3631  25
3632  29
3633  32
3634  29
3635  33
3636  42
3637  26
3638  39
3639  36
3640  27
3641  38
3642  35
3643  54
3644  38
3645  39
3646  30
3647  40
3648  34
3649  45
3650  39
3651  36
3652  49
3653  46
3654  45
3655  40
3656  40
3657  38
3658  26
3659  38
3660  46
3661  39
3662  32
3663  37
3664  33
3665  35
3666  41
3667  38
3668  36
3669  29
3670  35
3671  47
3672  38
3673  39
3674  29
3675  37
3676  39
3677  27
3678  41
3679  28
3680  28
3681  35
3682  23
3683  38
3684  35
3685  34
3686  49
3687  39
3688  32
3689  42
3690  37
3691  36
3692  42
3693  42
3694  31
3695  41
3696  34
3697  41
3698  36
3699  36
3700  41
3701  31
3702  47
3703  36
3704  41
3705  51
3706  55
3707  65
3708  48
3709  43
3710  44
3711  49
3712  56
3713  46
3714  43
3715  35
3716  43
3717  35
3718  39
3719  35
3720  25
3721  34
3722  40
3723  45
3724  38
3725  43
3726  38
3727  40
3728  29
3729  41
3730  32
3731  36
3732  27
3733  35
3734  40
3735  46
3736  31
3737  33
3738  25
3739  43
3740  34
3741  46
3742  34
3743  33
3744  38
3745  41
3746  52
3747  51
3748  48
3749  40
3750  61
3751  40
3752  43
3753  48
3754  49
3755  48
3756  49
3757  36
3758  28
3759  35
3760  53
3761  52
3762  40
3763  46
3764  43
3765  37
3766  47
3767  49
3768  31
3769  38
3770  41
3771  40
3772  34
3773  34
3774  30
3775  39
3776  40
3777  36
3778  44
3779  38
3780  44
3781  36
3782  37
3783  41
3784  38
3785  35
3786  56
3787  41
3788  35
3789  31
3790  50
3791  38
3792  41
3793  35
3794  32
3795  30
3796  34
3797  36
3798  36
3799  39
3800  37
3801  41
3802  37
3803  40
3804  39
3805  48
3806  45
3807  34
3808  47
3809  38
3810  35
3811  45
3812  32
3813  29
3814  28
3815  30
3816  32
3817  32
3818  34
3819  42
3820  36
3821  41
3822  32
3823  30
3824  32
3825  43
3826  33
3827  42
3828  32
3829  33
3830  38
3831  23
3832  41
3833  32
3834  39
3835  30
3836  41
3837  43
3838  41
3839  38
3840  40
3841  37
3842  32
3843  44
3844  34
3845  40
3846  34
3847  33
3848  32
3849  24
3850  34
3851  37
3852  37
3853  38
3854  36
3855  36
3856  50
3857  36
3858  37
3859  31
3860  38
3861  38
3862  36
3863  36
3864  37
3865  46
3866  31
3867  43
3868  35
3869  42
3870  26
3871  45
3872  40
3873  32
3874  41
3875  38
3876  39
3877  34
3878  43
3879  41
3880  34
3881  30
3882  34
3883  33
3884  40
3885  34
3886  44
3887  32
3888  39
3889  38
3890  44
3891  35
3892  37
3893  42
3894  33
3895  33
3896  41
3897  42
3898  28
3899  35
3900  36
3901  35
3902  40
3903  30
3904  58
3905  26
3906  39
3907  38
3908  29
3909  35
3910  36
3911  37
3912  40
3913  45
3914  34
3915  48
3916  38
3917  33
3918  40
3919  27
3920  50
3921  48
3922  39
3923  50
3924  52
3925  41
3926  55
3927  56
3928  45
3929  55
3930  60
3931  31
3932  41
3933  50
3934  41
3935  33
3936  40
3937  33
3938  34
3939  37
3940  29
3941  38
3942  40
3943  37
3944  38
3945  38
3946  35
3947  40
3948  36
3949  50
3950  44
3951  35
3952  32
3953  45
3954  32
3955  26
3956  44
3957  52
3958  51
3959  50
3960  48
3961  57
3962  64
3963  53
3964  44
3965  52
3966  58
3967  58
3968  71
3969  71
3970  100
3971  94
3972  113
3973  128
3974  167
3975  134
3976  153
3977  120
3978  112
3979  101
3980  86
3981  51
3982  64
3983  37
3984  47
3985  40
3986  35
3987  38
3988  40
3989  30
3990  44
3991  33
3992  31
3993  43
3994  34
3995  34
3996  30
3997  32
3998  38
3999  32
4000  39
4001  46
4002  43
4003  37
4004  42
4005  32
4006  44
4007  38
4008  27
4009  33
4010  31
4011  29
4012  39
4013  37
4014  19
4015  34
4016  38
4017  34
4018  47
4019  32
4020  35
4021  39
4022  34
4023  26
4024  26
4025  38
4026  33
4027  29
4028  28
4029  42
4030  29
4031  38
4032  35
4033  35
4034  40
4035  46
4036  42
4037  29
4038  35
4039  44
4040  46
4041  31
4042  42
4043  23
4044  39
4045  34
4046  24
4047  29
4048  32
4049  46
4050  36
4051  41
4052  34
4053  22
4054  41
4055  34
4056  36
4057  38
4058  32
4059  35
4060  34
4061  29
4062  37
4063  31
4064  36
4065  33
4066  37
4067  40
4068  32
4069  43
4070  52
4071  43
4072  43
4073  29
4074  30
4075  40
4076  33
4077  36
4078  31
4079  33
4080  43
4081  39
4082  38
4083  30
4084  48
4085  63
4086  74
4087  81
4088  71
4089  131
4090  133
4091  173
4092  232
4093  324
4094  331
4095  434
4096  424
4097  416
4098  394
4099  332
4100  304
4101  223
4102  159
4103  114
4104  73
4105  55
4106  45
4107  42
4108  36
4109  36
4110  46
4111  39
4112  27
4113  56
4114  37
4115  34
4116  36
4117  42
4118  45
4119  34
4120  27
4121  53
4122  31
4123  36
4124  33
4125  35
4126  37
4127  31
4128  44
4129  44
4130  46
4131  40
4132  25
4133  35
4134  35
4135  34
4136  40
4137  33
4138  36
4139  34
4140  40
4141  34
4142  38
4143  39
4144  36
4145  41
4146  26
4147  23
4148  36
4149  43
4150  30
4151  37
4152  45
4153  32
4154  41
4155  37
4156  37
4157  26
4158  44
4159  38
4160  39
4161  36
4162  34
4163  42
4164  31
4165  34
4166  35
4167  38
4168  32
4169  31
4170  41
4171  41
4172  40
4173  49
4174  37
4175  38
4176  42
4177  48
4178  46
4179  39
4180  40
4181  39
4182  37
4183  49
4184  36
4185  46
4186  41
4187  37
4188  29
4189  43
4190  33
4191  41
4192  45
4193  55
4194  61
4195  61
4196  75
4197  105
4198  96
4199  97
4200  80
4201  87
4202  81
4203  76
4204  60
4205  43
4206  43
4207  41
4208  39
4209  41
4210  50
4211  35
4212  37
4213  38
4214  36
4215  47
4216  38
4217  29
4218  28
4219  40
4220  30
4221  37
4222  30
4223  38
4224  40
4225  26
4226  37
4227  28
4228  34
4229  31
4230  33
4231  31
4232  43
4233  46
4234  36
4235  31
4236  29
4237  32
4238  35
4239  32
4240  40
4241  31
4242  28
4243  37
4244  38
4245  45
4246  30
4247  43
4248  26
4249  37
4250  28
4251  38
4252  36
4253  32
4254  31
4255  38
4256  37
4257  37
4258  30
4259  36
4260  35
4261  28
4262  24
4263  19
4264  36
4265  30
4266  29
4267  34
4268  25
4269  28
4270  29
4271  28
4272  17
4273  29
4274  31
4275  34
4276  34
4277  37
4278  33
4279  20
4280  22
4281  28
4282  19
4283  18
4284  35
4285  11
4286  24
4287  16
4288  31
4289  22
4290  23
4291  20
4292  34
4293  31
4294  34
4295  36
4296  28
4297  34
4298  32
4299  29
4300  24
4301  37
4302  34
4303  38
4304  31
4305  29
4306  25
4307  23
4308  15
4309  17
4310  26
4311  34
4312  25
4313  30
4314  31
4315  23
4316  22
4317  29
4318  31
4319  27
4320  25
4321  24
4322  22
4323  19
4324  26
4325  22
4326  17
4327  16
4328  15
4329  25
4330  25
4331  26
4332  15
4333  21
4334  14
4335  23
4336  25
4337  18
4338  24
4339  21
4340  17
4341  18
4342  31
4343  23
4344  20
4345  21
4346  14
4347  20
4348  19
4349  26
4350  20
4351  17
4352  22
4353  11
4354  20
4355  20
4356  15
4357  13
4358  25
4359  16
4360  17
4361  20
4362  26
4363  19
4364  26
4365  33
4366  21
4367  19
4368  24
4369  22
4370  22
4371  24
4372  24
4373  28
4374  21
4375  26
4376  16
4377  22
4378  12
4379  11
4380  18
4381  15
4382  16
4383  18
4384  17
4385  18
4386  23
4387  28
4388  21
4389  18
4390  23
4391  18
4392  25
4393  20
4394  20
4395  30
4396  31
4397  32
4398  28
4399  34
4400  29
4401  38
4402  29
4403  19
4404  21
4405  16
4406  11
4407  26
4408  19
4409  17
4410  25
4411  13
4412  23
4413  29
4414  13
4415  19
4416  19
4417  19
4418  13
4419  15
4420  21
4421  15
4422  12
4423  29
4424  20
4425  27
4426  25
4427  17
4428  21
4429  27
4430  27
4431  36
4432  30
4433  34
4434  32
4435  27
4436  29
4437  32
4438  23
4439  25
4440  15
4441  17
4442  22
4443  18
4444  17
4445  22
4446  18
4447  19
4448  21
4449  24
4450  12
4451  22
4452  9
4453  19
4454  14
4455  17
4456  23
4457  19
4458  20
4459  22
4460  23
4461  24
4462  16
4463  17
4464  15
4465  14
4466  17
4467  11
4468  17
4469  15
4470  12
4471  10
4472  16
4473  18
4474  24
4475  18
4476  22
4477  23
4478  17
4479  18
4480  18
4481  16
4482  19
4483  14
4484  17
4485  15
4486  13
4487  12
4488  23
4489  16
4490  16
4491  17
4492  11
4493  17
4494  19
4495  21
4496  25
4497  20
4498  20
4499  19
4500  25
4501  18
4502  16
4503  22
4504  17
4505  20
4506  16
4507  13
4508  12
4509  23
4510  13
4511  20
4512  21
4513  20
4514  16
4515  19
4516  20
4517  16
4518  17
4519  22
4520  19
4521  13
4522  16
4523  14
4524  20
4525  18
4526  13
4527  15
4528  10
4529  23
4530  22
4531  20
4532  25
4533  30
4534  21
4535  18
4536  24
4537  21
4538  23
4539  19
4540  23
4541  20
4542  16
4543  12
4544  10
4545  11
4546  14
4547  20
4548  22
4549  16
4550  14
4551  23
4552  17
4553  17
4554  22
4555  18
4556  10
4557  8
4558  13
4559  20
4560  13
4561  17
4562  23
4563  19
4564  18
4565  11
4566  20
4567  12
4568  27
4569  19
4570  24
4571  11
4572  17
4573  16
4574  19
4575  14
4576  14
4577  12
4578  15
4579  18
4580  16
4581  15
4582  18
4583  25
4584  17
4585  20
4586  23
4587  11
4588  8
4589  19
4590  12
4591  17
4592  22
4593  18
4594  27
4595  10
4596  17
4597  8
4598  24
4599  16
4600  20
4601  13
4602  12
4603  17
4604  16
4605  14
4606  11
4607  13
4608  11
4609  12
4610  12
4611  15
4612  12
4613  18
4614  18
4615  16
4616  19
4617  19
4618  14
4619  13
4620  11
4621  15
4622  9
4623  11
4624  11
4625  11
4626  11
4627  17
4628  18
4629  14
4630  13
4631  18
4632  15
4633  11
4634  8
4635  11
4636  14
4637  17
4638  13
4639  16
4640  14
4641  19
4642  16
4643  17
4644  12
4645  14
4646  13
4647  17
4648  13
4649  15
4650  4
4651  12
4652  20
4653  9
4654  21
4655  17
4656  20
4657  20
4658  20
4659  13
4660  16
4661  17
4662  15
4663  13
4664  21
4665  21
4666  15
4667  12
4668  11
4669  23
4670  28
4671  11
4672  12
4673  10
4674  16
4675  18
4676  14
4677  14
4678  18
4679  24
4680  18
4681  27
4682  20
4683  35
4684  33
4685  34
4686  45
4687  32
4688  37
4689  34
4690  25
4691  20
4692  24
4693  25
4694  27
4695  21
4696  14
4697  32
4698  33
4699  33
4700  28
4701  30
4702  49
4703  31
4704  21
4705  18
4706  15
4707  16
4708  19
4709  9
4710  12
4711  11
4712  9
4713  15
4714  15
4715  9
4716  16
4717  12
4718  16
4719  16
4720  19
4721  17
4722  24
4723  16
4724  12
4725  15
4726  9
4727  12
4728  10
4729  5
4730  12
4731  17
4732  14
4733  14
4734  21
4735  14
4736  17
4737  13
4738  10
4739  12
4740  8
4741  7
4742  12
4743  10
4744  9
4745  12
4746  6
4747  14
4748  8
4749  12
4750  13
4751  9
4752  8
4753  11
4754  7
4755  10
4756  9
4757  7
4758  6
4759  12
4760  13
4761  10
4762  10
4763  10
4764  10
4765  7
4766  9
4767  11
4768  12
4769  19
4770  7
4771  12
4772  16
4773  9
4774  11
4775  8
4776  21
4777  22
4778  10
4779  19
4780  28
4781  14
4782  18
4783  14
4784  21
4785  11
4786  17
4787  9
4788  6
4789  14
4790  14
4791  18
4792  8
4793  10
4794  11
4795  8
4796  9
4797  9
4798  15
4799  13
4800  10
4801  8
4802  12
4803  10
4804  16
4805  9
4806  8
4807  14
4808  13
4809  15
4810  14
4811  8
4812  12
4813  9
4814  18
4815  7
4816  15
4817  12
4818  8
4819  12
4820  10
4821  12
4822  12
4823  7
4824  10
4825  12
4826  9
4827  11
4828  12
4829  10
4830  13
4831  12
4832  5
4833  7
4834  13
4835  11
4836  12
4837  15
4838  16
4839  9
4840  22
4841  18
4842  9
4843  17
4844  14
4845  20
4846  21
4847  17
4848  20
4849  18
4850  9
4851  7
4852  15
4853  10
4854  3
4855  7
4856  14
4857  13
4858  13
4859  11
4860  9
4861  9
4862  14
4863  5
4864  3
4865  6
4866  10
4867  9
4868  10
4869  15
4870  14
4871  13
4872  13
4873  10
4874  10
4875  15
4876  8
4877  10
4878  10
4879  7
4880  12
4881  9
4882  7
4883  8
4884  10
4885  9
4886  5
4887  6
4888  14
4889  12
4890  18
4891  13
4892  10
4893  20
4894  13
4895  16
4896  14
4897  28
4898  20
4899  13
4900  29
4901  10
4902  14
4903  16
4904  10
4905  18
4906  12
4907  13
4908  16
4909  15
4910  5
4911  16
4912  21
4913  17
4914  22
4915  20
4916  19
4917  23
4918  35
4919  25
4920  31
4921  23
4922  25
4923  26
4924  20
4925  34
4926  27
4927  15
4928  27
4929  18
4930  21
4931  13
4932  9
4933  11
4934  9
4935  10
4936  11
4937  13
4938  13
4939  6
4940  16
4941  9
4942  10
4943  7
4944  3
4945  17
4946  11
4947  5
4948  10
4949  10
4950  15
4951  10
4952  8
4953  11
4954  12
4955  16
4956  8
4957  9
4958  11
4959  11
4960  10
4961  10
4962  10
4963  10
4964  10
4965  13
4966  12
4967  8
4968  3
4969  12
4970  8
4971  14
4972  12
4973  17
4974  9
4975  6
4976  12
4977  9
4978  10
4979  10
4980  17
4981  8
4982  6
4983  9
4984  12
4985  12
4986  11
4987  18
4988  11
4989  10
4990  10
4991  12
4992  8
4993  8
4994  6
4995  6
4996  9
4997  7
4998  11
4999  10
5000  8
5001  7
5002  9
5003  15
5004  12
5005  17
5006  11
5007  16
5008  11
5009  7
5010  13
5011  12
5012  7
5013  19
5014  11
5015  9
5016  11
5017  13
5018  21
5019  30
5020  35
5021  28
5022  45
5023  31
5024  43
5025  26
5026  31
5027  38
5028  26
5029  25
5030  11
5031  23
5032  14
5033  8
5034  17
5035  9
5036  10
5037  6
5038  8
5039  9
5040  10
5041  9
5042  7
5043  9
5044  6
5045  12
5046  11
5047  12
5048  11
5049  14
5050  7
5051  6
5052  6
5053  8
5054  10
5055  12
5056  7
5057  9
5058  12
5059  12
5060  7
5061  5
5062  9
5063  10
5064  6
5065  6
5066  5
5067  9
5068  8
5069  12
5070  10
5071  7
5072  6
5073  7
5074  13
5075  5
5076  5
5077  7
5078  11
5079  10
5080  8
5081  5
5082  12
5083  8
5084  7
5085  6
5086  5
5087  10
5088  16
5089  5
5090  10
5091  5
5092  10
5093  6
5094  5
5095  9
5096  13
5097  4
5098  6
5099  2
5100  10
5101  12
5102  7
5103  11
5104  6
5105  7
5106  6
5107  4
5108  10
5109  10
5110  7
5111  5
5112  11
5113  11
5114  4
5115  9
5116  6
5117  8
5118  7
5119  8
5120  11
5121  15
5122  8
5123  9
5124  7
5125  11
5126  6
5127  6
5128  13
5129  8
5130  14
5131  11
5132  5
5133  8
5134  9
5135  7
5136  8
5137  10
5138  12
5139  16
5140  17
5141  15
5142  15
5143  13
5144  13
5145  15
5146  15
5147  8
5148  11
5149  13
5150  7
5151  13
5152  10
5153  10
5154  6
5155  9
5156  9
5157  7
5158  9
5159  10
5160  14
5161  7
5162  9
5163  7
5164  13
5165  12
5166  9
5167  5
5168  7
5169  10
5170  7
5171  8
5172  13
5173  6
5174  10
5175  6
5176  7
5177  9
5178  11
5179  10
5180  9
5181  7
5182  13
5183  6
5184  7
5185  11
5186  11
5187  9
5188  8
5189  7
5190  10
5191  11
5192  11
5193  11
5194  11
5195  10
5196  8
5197  13
5198  14
5199  12
5200  7
5201  9
5202  8
5203  20
5204  8
5205  7
5206  13
5207  9
5208  7
5209  8
5210  11
5211  9
5212  6
5213  6
5214  7
5215  8
5216  10
5217  11
5218  8
5219  18
5220  7
5221  5
5222  10
5223  9
5224  10
5225  4
5226  6
5227  5
5228  10
5229  8
5230  7
5231  9
5232  10
5233  8
5234  6
5235  12
5236  8
5237  7
5238  13
5239  8
5240  8
5241  11
5242  10
5243  4
5244  14
5245  9
5246  8
5247  10
5248  4
5249  7
5250  9
5251  8
5252  10
5253  12
5254  6
5255  5
5256  9
5257  5
5258  7
5259  8
5260  12
5261  5
5262  6
5263  11
5264  4
5265  10
5266  6
5267  11
5268  9
5269  9
5270  13
5271  11
5272  8
5273  8
5274  11
5275  13
5276  11
5277  8
5278  16
5279  10
5280  11
5281  9
5282  11
5283  11
5284  10
5285  7
5286  17
5287  12
5288  13
5289  10
5290  11
5291  8
5292  13
5293  15
5294  18
5295  28
5296  31
5297  46
5298  57
5299  96
5300  143
5301  206
5302  245
5303  342
5304  395
5305  460
5306  530
5307  623
5308  711
5309  672
5310  647
5311  624
5312  524
5313  403
5314  276
5315  213
5316  143
5317  98
5318  54
5319  34
5320  15
5321  20
5322  9
5323  12
5324  12
5325  9
5326  7
5327  11
5328  5
5329  4
5330  13
5331  3
5332  4
5333  4
5334  4
5335  9
5336  7
5337  3
5338  2
5339  8
5340  7
5341  10
5342  6
5343  7
5344  6
5345  5
5346  2
5347  9
5348  3
5349  7
5350  4
5351  1
5352  8
5353  2
5354  5
5355  8
5356  13
5357  6
5358  9
5359  4
5360  7
5361  9
5362  7
5363  4
5364  8
5365  12
5366  7
5367  7
5368  7
5369  13
5370  3
5371  3
5372  6
5373  8
5374  9
5375  7
5376  3
5377  6
5378  3
5379  5
5380  1
5381  8
5382  4
5383  7
5384  5
5385  13
5386  7
5387  7
5388  1
5389  10
5390  4
5391  3
5392  8
5393  8
5394  4
5395  10
5396  9
5397  5
5398  2
5399  5
5400  3
5401  4
5402  6
5403  7
5404  8
5405  3
5406  10
5407  5
5408  4
5409  7
5410  9
5411  3
5412  7
5413  7
5414  8
5415  9
5416  7
5417  6
5418  4
5419  5
5420  5
5421  7
5422  4
5423  10
5424  4
5425  4
5426  8
5427  5
5428  4
5429  9
5430  8
5431  5
5432  5
5433  2
5434  13
5435  3
5436  5
5437  10
5438  6
5439  3
5440  7
5441  5
5442  5
5443  3
5444  9
5445  5
5446  11
5447  3
5448  4
5449  6
5450  7
5451  9
5452  7
5453  3
5454  7
5455  9
5456  8
5457  4
5458  7
5459  8
5460  6
5461  8
5462  3
5463  1
5464  10
5465  5
5466  11
5467  8
5468  7
5469  5
5470  5
5471  5
5472  5
5473  3
5474  5
5475  6
5476  6
5477  6
5478  5
5479  6
5480  6
5481  2
5482  4
5483  6
5484  12
5485  3
5486  7
5487  5
5488  3
5489  8
5490  3
5491  3
5492  12
5493  5
5494  6
5495  8
5496  7
5497  6
5498  4
5499  5
5500  3
5501  7
5502  6
5503  7
5504  9
5505  3
5506  4
5507  5
5508  7
5509  5
5510  10
5511  2
5512  9
5513  2
5514  7
5515  3
5516  6
5517  3
5518  7
5519  7
5520  5
5521  8
5522  9
5523  7
5524  5
5525  6
5526  5
5527  4
5528  9
5529  10
5530  9
5531  5
5532  5
5533  7
5534  5
5535  5
5536  4
5537  2
5538  5
5539  7
5540  4
5541  2
5542  5
5543  4
5544  6
5545  6
5546  6
5547  4
5548  6
5549  5
5550  7
5551  7
5552  4
5553  7
5554  7
5555  4
5556  3
5557  5
5558  6
5559  5
5560  2
5561  5
5562  2
5563  6
5564  3
5565  4
5566  1
5567  4
5568  4
5569  11
5570  5
5571  1
5572  3
5573  4
5574  2
5575  7
5576  5
5577  7
5578  6
5579  7
5580  5
5581  8
5582  6
5583  8
5584  10
5585  4
5586  6
5587  7
5588  9
5589  6
5590  5
5591  10
5592  7
5593  1
5594  7
5595  6
5596  7
5597  10
5598  3
5599  8
5600  0
5601  8
5602  8
5603  5
5604  5
5605  7
5606  3
5607  5
5608  6
5609  5
5610  5
5611  5
5612  7
5613  3
5614  5
5615  3
5616  2
5617  4
5618  5
5619  6
5620  4
5621  3
5622  6
5623  6
5624  2
5625  5
5626  4
5627  2
5628  10
5629  8
5630  10
5631  7
5632  6
5633  8
5634  7
5635  10
5636  1
5637  4
5638  4
5639  6
5640  8
5641  3
5642  2
5643  8
5644  2
5645  2
5646  3
5647  2
5648  4
5649  3
5650  5
5651  2
5652  9
5653  3
5654  3
5655  6
5656  4
5657  2
5658  7
5659  4
5660  6
5661  3
5662  5
5663  2
5664  9
5665  5
5666  4
5667  4
5668  3
5669  0
5670  6
5671  2
5672  4
5673  6
5674  6
5675  4
5676  4
5677  3
5678  4
5679  5
5680  4
5681  6
5682  3
5683  10
5684  3
5685  10
5686  7
5687  6
5688  3
5689  8
5690  4
5691  9
5692  7
5693  3
5694  6
5695  4
5696  1
5697  8
5698  5
5699  1
5700  6
5701  5
5702  2
5703  5
5704  6
5705  9
5706  4
5707  1
5708  6
5709  6
5710  7
5711  1
5712  3
5713  3
5714  8
5715  9
5716  4
5717  4
5718  9
5719  7
5720  9
5721  8
5722  4
5723  9
5724  8
5725  5
5726  5
5727  0
5728  6
5729  4
5730  3
5731  11
5732  3
5733  7
5734  7
5735  4
5736  3
5737  10
5738  3
5739  7
5740  6
5741  5
5742  3
5743  7
5744  4
5745  3
5746  5
5747  5
5748  4
5749  5
5750  6
5751  7
5752  8
5753  3
5754  3
5755  4
5756  6
5757  5
5758  2
5759  7
5760  5
5761  4
5762  7
5763  7
5764  2
5765  3
5766  2
5767  1
5768  6
5769  6
5770  2
5771  8
5772  5
5773  12
5774  5
5775  3
5776  6
5777  8
5778  3
5779  1
5780  3
5781  4
5782  8
5783  4
5784  4
5785  2
5786  2
5787  4
5788  4
5789  6
5790  13
5791  8
5792  4
5793  1
5794  2
5795  8
5796  5
5797  7
5798  7
5799  6
5800  3
5801  4
5802  1
5803  7
5804  2
5805  5
5806  3
5807  9
5808  9
5809  7
5810  3
5811  4
5812  4
5813  2
5814  8
5815  4
5816  3
5817  5
5818  4
5819  5
5820  4
5821  2
5822  4
5823  6
5824  5
5825  9
5826  8
5827  5
5828  6
5829  8
5830  3
5831  3
5832  3
5833  4
5834  5
5835  8
5836  4
5837  7
5838  7
5839  2
5840  3
5841  2
5842  4
5843  2
5844  3
5845  2
5846  6
5847  5
5848  9
5849  4
5850  6
5851  7
5852  5
5853  4
5854  3
5855  1
5856  2
5857  5
5858  2
5859  2
5860  8
5861  4
5862  1
5863  5
5864  6
5865  6
5866  6
5867  5
5868  4
5869  8
5870  5
5871  6
5872  4
5873  4
5874  7
5875  5
5876  2
5877  7
5878  7
5879  4
5880  5
5881  5
5882  8
5883  6
5884  6
5885  6
5886  3
5887  4
5888  3
5889  6
5890  6
5891  6
5892  7
5893  6
5894  2
5895  4
5896  4
5897  6
5898  3
5899  4
5900  6
5901  1
5902  3
5903  8
5904  3
5905  3
5906  2
5907  5
5908  7
5909  5
5910  6
5911  3
5912  5
5913  4
5914  3
5915  9
5916  2
5917  4
5918  5
5919  9
5920  8
5921  8
5922  10
5923  8
5924  9
5925  13
5926  10
5927  18
5928  8
5929  5
5930  11
5931  6
5932  10
5933  9
5934  6
5935  4
5936  4
5937  3
5938  5
5939  2
5940  5
5941  3
5942  2
5943  6
5944  6
5945  6
5946  6
5947  8
5948  5
5949  16
5950  10
5951  6
5952  12
5953  8
5954  11
5955  2
5956  7
5957  4
5958  3
5959  2
5960  5
5961  9
5962  6
5963  5
5964  5
5965  5
5966  3
5967  7
5968  6
5969  5
5970  2
5971  1
5972  3
5973  6
5974  7
5975  4
5976  2
5977  3
5978  3
5979  4
5980  5
5981  8
5982  3
5983  2
5984  7
5985  3
5986  6
5987  3
5988  3
5989  9
5990  4
5991  4
5992  6
5993  5
5994  4
5995  8
5996  2
5997  7
5998  5
5999  7
6000  5
6001  2
6002  3
6003  7
6004  4
6005  8
6006  5
6007  3
6008  2
6009  4
6010  4
6011  3
6012  9
6013  2
6014  6
6015  5
6016  2
6017  4
6018  4
6019  5
6020  4
6021  6
6022  7
6023  11
6024  2
6025  5
6026  3
6027  2
6028  4
6029  3
6030  1
6031  4
6032  5
6033  3
6034  5
6035  2
6036  4
6037  7
6038  6
6039  3
6040  8
6041  5
6042  10
6043  1
6044  5
6045  3
6046  3
6047  5
6048  4
6049  4
6050  0
6051  2
6052  4
6053  5
6054  3
6055  3
6056  5
6057  3
6058  6
6059  6
6060  5
6061  6
6062  7
6063  8
6064  5
6065  4
6066  4
6067  5
6068  5
6069  7
6070  3
6071  8
6072  3
6073  4
6074  3
6075  4
6076  1
6077  5
6078  5
6079  6
6080  4
6081  3
6082  5
6083  4
6084  5
6085  7
6086  5
6087  4
6088  6
6089  4
6090  3
6091  3
6092  7
6093  3
6094  3
6095  3
6096  3
6097  6
6098  2
6099  4
6100  4
6101  2
6102  4
6103  9
6104  7
6105  8
6106  7
6107  3
6108  10
6109  8
6110  1
6111  1
6112  7
6113  2
6114  6
6115  4
6116  2
6117  4
6118  4
6119  4
6120  6
6121  4
6122  0
6123  4
6124  2
6125  3
6126  9
6127  5
6128  4
6129  6
6130  4
6131  4
6132  1
6133  6
6134  2
6135  8
6136  2
6137  2
6138  2
6139  6
6140  5
6141  6
6142  7
6143  6
6144  1
6145  11
6146  6
6147  8
6148  5
6149  6
6150  5
6151  3
6152  5
6153  2
6154  5
6155  0
6156  3
6157  7
6158  4
6159  8
6160  4
6161  2
6162  7
6163  4
6164  3
6165  7
6166  7
6167  9
6168  4
6169  11
6170  4
6171  6
6172  3
6173  6
6174  6
6175  7
6176  2
6177  2
6178  3
6179  6
6180  4
6181  4
6182  3
6183  5
6184  8
6185  6
6186  1
6187  3
6188  6
6189  8
6190  2
6191  3
6192  5
6193  5
6194  5
6195  6
6196  6
6197  7
6198  3
6199  9
6200  9
6201  3
6202  3
6203  4
6204  2
6205  10
6206  6
6207  5
6208  2
6209  6
6210  4
6211  4
6212  8
6213  6
6214  3
6215  3
6216  2
6217  5
6218  5
6219  3
6220  3
6221  3
6222  3
6223  3
6224  3
6225  4
6226  4
6227  4
6228  2
6229  7
6230  5
6231  2
6232  2
6233  3
6234  3
6235  6
6236  1
6237  3
6238  8
6239  5
6240  3
6241  5
6242  6
6243  8
6244  2
6245  6
6246  4
6247  4
6248  11
6249  11
6250  5
6251  3
6252  3
6253  1
6254  7
6255  7
6256  4
6257  6
6258  9
6259  6
6260  4
6261  2
6262  4
6263  2
6264  7
6265  3
6266  3
6267  6
6268  3
6269  3
6270  3
6271  5
6272  2
6273  4
6274  4
6275  2
6276  11
6277  6
6278  4
6279  7
6280  4
6281  2
6282  5
6283  7
6284  3
6285  7
6286  4
6287  1
6288  5
6289  5
6290  4
6291  5
6292  8
6293  4
6294  4
6295  8
6296  6
6297  11
6298  10
6299  11
6300  8
6301  8
6302  12
6303  11
6304  14
6305  10
6306  17
6307  10
6308  16
6309  18
6310  5
6311  6
6312  4
6313  9
6314  5
6315  4
6316  5
6317  3
6318  2
6319  2
6320  2
6321  4
6322  7
6323  3
6324  5
6325  3
6326  2
6327  10
6328  6
6329  4
6330  3
6331  3
6332  2
6333  1
6334  4
6335  4
6336  3
6337  2
6338  4
6339  3
6340  3
6341  5
6342  7
6343  6
6344  6
6345  8
6346  3
6347  2
6348  4
6349  6
6350  3
6351  3
6352  10
6353  3
6354  2
6355  8
6356  6
6357  2
6358  5
6359  6
6360  5
6361  4
6362  0
6363  1
6364  5
6365  3
6366  2
6367  7
6368  2
6369  5
6370  4
6371  4
6372  1
6373  4
6374  2
6375  2
6376  3
6377  3
6378  3
6379  6
6380  0
6381  11
6382  3
6383  2
6384  2
6385  2
6386  5
6387  7
6388  6
6389  1
6390  8
6391  3
6392  2
6393  8
6394  2
6395  4
6396  5
6397  3
6398  4
6399  6
6400  6
6401  7
6402  4
6403  8
6404  7
6405  5
6406  7
6407  7
6408  5
6409  2
6410  5
6411  5
6412  4
6413  5
6414  6
6415  4
6416  3
6417  9
6418  1
6419  2
6420  4
6421  3
6422  2
6423  4
6424  3
6425  2
6426  6
6427  7
6428  5
6429  3
6430  4
6431  4
6432  3
6433  5
6434  5
6435  7
6436  3
6437  6
6438  8
6439  6
6440  2
6441  4
6442  4
6443  6
6444  2
6445  4
6446  6
6447  4
6448  6
6449  5
6450  5
6451  5
6452  6
6453  5
6454  7
6455  2
6456  3
6457  3
6458  2
6459  4
6460  5
6461  1
6462  10
6463  5
6464  3
6465  5
6466  1
6467  2
6468  2
6469  3
6470  4
6471  4
6472  9
6473  2
6474  9
6475  7
6476  7
6477  5
6478  9
6479  5
6480  4
6481  9
6482  2
6483  4
6484  2
6485  4
6486  5
6487  4
6488  2
6489  4
6490  4
6491  6
6492  3
6493  6
6494  5
6495  7
6496  4
6497  2
6498  7
6499  4
6500  6
6501  5
6502  6
6503  4
6504  3
6505  2
6506  4
6507  5
6508  5
6509  3
6510  3
6511  3
6512  3
6513  5
6514  3
6515  6
6516  5
6517  2
6518  7
6519  3
6520  5
6521  6
6522  5
6523  7
6524  10
6525  5
6526  7
6527  5
6528  12
6529  10
6530  21
6531  7
6532  9
6533  4
6534  8
6535  7
6536  9
6537  12
6538  4
6539  5
6540  6
6541  3
6542  9
6543  3
6544  5
6545  4
6546  2
6547  2
6548  1
6549  4
6550  2
6551  7
6552  6
6553  2
6554  2
6555  5
6556  3
6557  3
6558  5
6559  9
6560  6
6561  2
6562  4
6563  2
6564  7
6565  1
6566  0
6567  3
6568  3
6569  3
6570  2
6571  1
6572  3
6573  5
6574  2
6575  3
6576  8
6577  4
6578  3
6579  3
6580  4
6581  3
6582  1
6583  5
6584  2
6585  5
6586  4
6587  4
6588  1
6589  2
6590  5
6591  1
6592  5
6593  4
6594  2
6595  6
6596  2
6597  3
6598  3
6599  2
6600  2
6601  5
6602  4
6603  10
6604  1
6605  4
6606  0
6607  2
6608  6
6609  3
6610  5
6611  7
6612  2
6613  9
6614  4
6615  3
6616  2
6617  3
6618  3
6619  4
6620  8
6621  4
6622  3
6623  7
6624  5
6625  2
6626  0
6627  4
6628  4
6629  6
6630  5
6631  6
6632  5
6633  4
6634  4
6635  2
6636  3
6637  5
6638  3
6639  5
6640  5
6641  2
6642  1
6643  4
6644  4
6645  3
6646  5
6647  3
6648  5
6649  2
6650  3
6651  2
6652  1
6653  4
6654  3
6655  2
6656  4
6657  2
6658  3
6659  5
6660  2
6661  1
6662  7
6663  9
6664  5
6665  1
6666  1
6667  3
6668  5
6669  3
6670  1
6671  1
6672  4
6673  2
6674  2
6675  6
6676  3
6677  3
6678  3
6679  3
6680  5
6681  1
6682  1
6683  4
6684  4
6685  4
6686  5
6687  2
6688  1
6689  2
6690  2
6691  2
6692  5
6693  7
6694  2
6695  2
6696  5
6697  2
6698  4
6699  2
6700  5
6701  5
6702  3
6703  3
6704  3
6705  1
6706  3
6707  3
6708  0
6709  4
6710  5
6711  4
6712  3
6713  4
6714  7
6715  4
6716  5
6717  3
6718  4
6719  3
6720  2
6721  2
6722  6
6723  7
6724  2
6725  5
6726  5
6727  6
6728  1
6729  3
6730  3
6731  2
6732  1
6733  1
6734  5
6735  4
6736  3
6737  2
6738  5
6739  4
6740  0
6741  1
6742  3
6743  1
6744  3
6745  6
6746  2
6747  6
6748  3
6749  1
6750  2
6751  5
6752  3
6753  2
6754  3
6755  0
6756  6
6757  9
6758  3
6759  4
6760  7
6761  2
6762  5
6763  2
6764  2
6765  0
6766  6
6767  1
6768  3
6769  3
6770  5
6771  6
6772  5
6773  6
6774  4
6775  6
6776  3
6777  5
6778  2
6779  3
6780  2
6781  9
6782  3
6783  2
6784  3
6785  2
6786  1
6787  4
6788  3
6789  7
6790  3
6791  2
6792  3
6793  2
6794  2
6795  5
6796  3
6797  3
6798  3
6799  4
6800  5
6801  2
6802  4
6803  4
6804  2
6805  5
6806  2
6807  0
6808  3
6809  1
6810  2
6811  3
6812  4
6813  3
6814  6
6815  5
6816  0
6817  5
6818  4
6819  2
6820  2
6821  3
6822  5
6823  5
6824  4
6825  3
6826  1
6827  2
6828  1
6829  2
6830  3
6831  1
6832  4
6833  1
6834  2
6835  0
6836  1
6837  3
6838  3
6839  5
6840  2
6841  1
6842  5
6843  7
6844  1
6845  4
6846  6
6847  2
6848  4
6849  1
6850  5
6851  6
6852  2
6853  4
6854  7
6855  2
6856  2
6857  1
6858  1
6859  1
6860  0
6861  3
6862  2
6863  5
6864  0
6865  3
6866  3
6867  4
6868  1
6869  0
6870  1
6871  1
6872  2
6873  3
6874  3
6875  3
6876  1
6877  6
6878  6
6879  5
6880  2
6881  3
6882  4
6883  4
6884  4
6885  3
6886  3
6887  4
6888  1
6889  3
6890  2
6891  3
6892  2
6893  1
6894  1
6895  2
6896  4
6897  5
6898  2
6899  4
6900  4
6901  2
6902  4
6903  1
6904  4
6905  3
6906  0
6907  2
6908  2
6909  4
6910  2
6911  4
6912  3
6913  1
6914  1
6915  4
6916  1
6917  3
6918  4
6919  6
6920  1
6921  5
6922  1
6923  3
6924  5
6925  2
6926  5
6927  6
6928  2
6929  4
6930  2
6931  9
6932  2
6933  2
6934  2
6935  1
6936  5
6937  2
6938  3
6939  3
6940  4
6941  3
6942  1
6943  0
6944  5
6945  2
6946  4
6947  3
6948  2
6949  6
6950  3
6951  1
6952  2
6953  1
6954  2
6955  2
6956  5
6957  1
6958  0
6959  0
6960  2
6961  1
6962  1
6963  3
6964  3
6965  4
6966  3
6967  0
6968  6
6969  5
6970  2
6971  3
6972  1
6973  2
6974  3
6975  4
6976  2
6977  1
6978  6
6979  4
6980  3
6981  2
6982  4
6983  3
6984  4
6985  2
6986  4
6987  3
6988  3
6989  3
6990  3
6991  2
6992  0
6993  6
6994  2
6995  2
6996  1
6997  5
6998  2
6999  6
7000  3
7001  4
7002  3
7003  1
7004  6
7005  2
7006  3
7007  1
7008  2
7009  3
7010  5
7011  2
7012  2
7013  2
7014  2
7015  1
7016  2
7017  3
7018  3
7019  3
7020  4
7021  2
7022  0
7023  2
7024  2
7025  1
7026  1
7027  2
7028  2
7029  3
7030  3
7031  3
7032  5
7033  7
7034  3
7035  2
7036  4
7037  2
7038  1
7039  2
7040  1
7041  4
7042  3
7043  2
7044  1
7045  4
7046  3
7047  5
7048  4
7049  1
7050  2
7051  3
7052  2
7053  0
7054  3
7055  3
7056  0
7057  3
7058  4
7059  1
7060  2
7061  4
7062  3
7063  4
7064  3
7065  2
7066  3
7067  1
7068  0
7069  7
7070  4
7071  4
7072  2
7073  0
7074  3
7075  3
7076  4
7077  3
7078  0
7079  5
7080  5
7081  2
7082  2
7083  2
7084  6
7085  2
7086  1
7087  6
7088  1
7089  1
7090  4
7091  1
7092  0
7093  6
7094  3
7095  2
7096  4
7097  4
7098  3
7099  3
7100  1
7101  2
7102  3
7103  4
7104  2
7105  0
7106  2
7107  2
7108  3
7109  3
7110  5
7111  1
7112  1
7113  0
7114  3
7115  3
7116  2
7117  5
7118  4
7119  3
7120  4
7121  7
7122  1
7123  4
7124  1
7125  3
7126  4
7127  4
7128  0
7129  4
7130  3
7131  5
7132  3
7133  0
7134  2
7135  2
7136  5
7137  5
7138  1
7139  2
7140  2
7141  5
7142  4
7143  1
7144  2
7145  3
7146  3
7147  1
7148  4
7149  2
7150  1
7151  4
7152  2
7153  1
7154  3
7155  2
7156  5
7157  2
7158  3
7159  2
7160  3
7161  1
7162  1
7163  1
7164  2
7165  1
7166  2
7167  5
7168  2
7169  3
7170  2
7171  2
7172  1
7173  1
7174  3
7175  0
7176  0
7177  2
7178  6
7179  1
7180  2
7181  0
7182  2
7183  2
7184  3
7185  4
7186  4
7187  3
7188  3
7189  3
7190  1
7191  0
7192  1
7193  1
7194  2
7195  1
7196  1
7197  5
7198  1
7199  3
7200  2
7201  3
7202  0
7203  3
7204  4
7205  4
7206  2
7207  1
7208  1
7209  3
7210  1
7211  2
7212  3
7213  2
7214  4
7215  3
7216  0
7217  2
7218  1
7219  3
7220  2
7221  1
7222  2
7223  3
7224  2
7225  3
7226  2
7227  2
7228  3
7229  4
7230  4
7231  2
7232  3
7233  2
7234  5
7235  4
7236  3
7237  2
7238  4
7239  1
7240  3
7241  3
7242  2
7243  2
7244  4
7245  3
7246  4
7247  1
7248  3
7249  2
7250  2
7251  4
7252  2
7253  4
7254  2
7255  1
7256  4
7257  1
7258  5
7259  4
7260  3
7261  3
7262  1
7263  6
7264  7
7265  1
7266  4
7267  2
7268  4
7269  3
7270  0
7271  2
7272  1
7273  3
7274  0
7275  3
7276  2
7277  4
7278  1
7279  2
7280  1
7281  3
7282  1
7283  3
7284  2
7285  3
7286  2
7287  3
7288  2
7289  1
7290  3
7291  0
7292  2
7293  3
7294  1
7295  2
7296  2
7297  1
7298  3
7299  1
7300  1
7301  0
7302  3
7303  2
7304  2
7305  3
7306  0
7307  2
7308  0
7309  2
7310  3
7311  1
7312  2
7313  3
7314  3
7315  2
7316  0
7317  5
7318  1
7319  0
7320  1
7321  4
7322  3
7323  1
7324  4
7325  6
7326  2
7327  2
7328  6
7329  3
7330  1
7331  2
7332  3
7333  4
7334  2
7335  4
7336  2
7337  1
7338  3
7339  6
7340  0
7341  2
7342  0
7343  2
7344  1
7345  3
7346  1
7347  1
7348  2
7349  1
7350  2
7351  1
7352  1
7353  1
7354  2
7355  3
7356  0
7357  1
7358  0
7359  6
7360  2
7361  2
7362  1
7363  3
7364  5
7365  1
7366  5
7367  2
7368  0
7369  3
7370  1
7371  4
7372  2
7373  3
7374  3
7375  3
7376  6
7377  7
7378  5
7379  1
7380  2
7381  5
7382  2
7383  2
7384  4
7385  3
7386  3
7387  1
7388  2
7389  0
7390  1
7391  3
7392  4
7393  3
7394  2
7395  0
7396  5
7397  1
7398  1
7399  3
7400  1
7401  3
7402  2
7403  4
7404  4
7405  0
7406  3
7407  4
7408  3
7409  1
7410  5
7411  3
7412  1
7413  6
7414  3
7415  2
7416  3
7417  4
7418  4
7419  0
7420  3
7421  2
7422  3
7423  1
7424  3
7425  1
7426  2
7427  0
7428  2
7429  3
7430  2
7431  2
7432  1
7433  2
7434  3
7435  6
7436  2
7437  3
7438  6
7439  4
7440  2
7441  3
7442  3
7443  1
7444  1
7445  4
7446  1
7447  0
7448  3
7449  1
7450  5
7451  3
7452  1
7453  1
7454  6
7455  1
7456  2
7457  2
7458  4
7459  2
7460  2
7461  4
7462  0
7463  4
7464  1
7465  3
7466  3
7467  3
7468  4
7469  0
7470  3
7471  2
7472  1
7473  4
7474  2
7475  1
7476  1
7477  0
7478  3
7479  2
7480  1
7481  1
7482  5
7483  4
7484  1
7485  5
7486  2
7487  8
7488  4
7489  2
7490  2
7491  1
7492  2
7493  2
7494  2
7495  2
7496  3
7497  2
7498  1
7499  1
7500  3
7501  3
7502  1
7503  2
7504  6
7505  0
7506  4
7507  2
7508  2
7509  2
7510  4
7511  2
7512  2
7513  1
7514  2
7515  1
7516  1
7517  4
7518  3
7519  1
7520  3
7521  2
7522  1
7523  0
7524  3
7525  2
7526  3
7527  4
7528  0
7529  2
7530  3
7531  1
7532  3
7533  3
7534  2
7535  3
7536  5
7537  1
7538  7
7539  5
7540  1
7541  2
7542  6
7543  4
7544  6
7545  4
7546  4
7547  5
7548  8
7549  8
7550  7
7551  5
7552  3
7553  7
7554  4
7555  0
7556  2
7557  5
7558  4
7559  0
7560  3
7561  2
7562  4
7563  0
7564  4
7565  2
7566  1
7567  0
7568  1
7569  5
7570  2
7571  3
7572  3
7573  1
7574  0
7575  3
7576  6
7577  4
7578  3
7579  1
7580  4
7581  4
7582  4
7583  3
7584  2
7585  2
7586  0
7587  0
7588  1
7589  1
7590  2
7591  5
7592  4
7593  2
7594  3
7595  3
7596  1
7597  3
7598  3
7599  1
7600  5
7601  4
7602  4
7603  2
7604  0
7605  1
7606  2
7607  2
7608  2
7609  5
7610  3
7611  2
7612  1
7613  0
7614  5
7615  1
7616  1
7617  0
7618  3
7619  0
7620  0
7621  0
7622  3
7623  2
7624  0
7625  3
7626  2
7627  2
7628  2
7629  4
7630  3
7631  0
7632  4
7633  2
7634  2
7635  3
7636  3
7637  3
7638  1
7639  3
7640  2
7641  3
7642  4
7643  2
7644  3
7645  1
7646  0
7647  6
7648  3
7649  0
7650  1
7651  4
7652  3
7653  1
7654  0
7655  2
7656  6
7657  3
7658  4
7659  3
7660  2
7661  1
7662  4
7663  3
7664  2
7665  4
7666  3
7667  1
7668  1
7669  3
7670  8
7671  4
7672  12
7673  10
7674  8
7675  9
7676  9
7677  20
7678  19
7679  21
7680  22
7681  35
7682  34
7683  27
7684  34
7685  45
7686  43
7687  32
7688  22
7689  27
7690  16
7691  13
7692  7
7693  3
7694  4
7695  1
7696  4
7697  1
7698  1
7699  3
7700  1
7701  3
7702  1
7703  3
7704  2
7705  0
7706  2
7707  1
7708  2
7709  0
7710  4
7711  0
7712  1
7713  3
7714  2
7715  2
7716  2
7717  2
7718  2
7719  3
7720  2
7721  1
7722  1
7723  1
7724  1
7725  0
7726  1
7727  2
7728  0
7729  1
7730  2
7731  0
7732  2
7733  0
7734  0
7735  2
7736  2
7737  0
7738  0
7739  2
7740  3
7741  2
7742  2
7743  1
7744  1
7745  0
7746  1
7747  1
7748  1
7749  2
7750  1
7751  1
7752  1
7753  3
7754  2
7755  2
7756  0
7757  3
7758  1
7759  2
7760  2
7761  2
7762  1
7763  1
7764  0
7765  4
7766  3
7767  1
7768  0
7769  0
7770  4
7771  1
7772  1
7773  4
7774  1
7775  1
7776  2
7777  3
7778  0
7779  4
7780  2
7781  2
7782  0
7783  1
7784  1
7785  1
7786  0
7787  1
7788  0
7789  3
7790  1
7791  3
7792  1
7793  2
7794  0
7795  2
7796  1
7797  1
7798  3
7799  5
7800  1
7801  4
7802  0
7803  1
7804  4
7805  0
7806  1
7807  1
7808  0
7809  2
7810  2
7811  3
7812  0
7813  1
7814  3
7815  1
7816  5
7817  4
7818  2
7819  5
7820  2
7821  1
7822  1
7823  4
7824  1
7825  0
7826  1
7827  5
7828  2
7829  2
7830  2
7831  0
7832  0
7833  2
7834  2
7835  0
7836  2
7837  2
7838  2
7839  1
7840  2
7841  2
7842  3
7843  1
7844  1
7845  2
7846  1
7847  6
7848  2
7849  1
7850  0
7851  2
7852  1
7853  0
7854  5
7855  3
7856  1
7857  2
7858  2
7859  2
7860  0
7861  3
7862  0
7863  1
7864  3
7865  1
7866  0
7867  1
7868  2
7869  2
7870  2
7871  1
7872  2
7873  1
7874  2
7875  2
7876  2
7877  1
7878  1
7879  1
7880  2
7881  2
7882  0
7883  2
7884  0
7885  6
7886  2
7887  0
7888  0
7889  3
7890  1
7891  2
7892  2
7893  2
7894  2
7895  3
7896  3
7897  3
7898  2
7899  3
7900  1
7901  0
7902  2
7903  4
7904  0
7905  0
7906  1
7907  1
7908  2
7909  0
7910  2
7911  4
7912  4
7913  4
7914  2
7915  1
7916  2
7917  2
7918  4
7919  2
7920  4
7921  4
7922  3
7923  1
7924  5
7925  2
7926  4
7927  2
7928  1
7929  1
7930  2
7931  6
7932  2
7933  7
7934  3
7935  4
7936  6
7937  7
7938  8
7939  13
7940  5
7941  9
7942  4
7943  10
7944  2
7945  3
7946  2
7947  5
7948  3
7949  2
7950  1
7951  2
7952  1
7953  4
7954  1
7955  0
7956  2
7957  1
7958  0
7959  3
7960  5
7961  0
7962  0
7963  0
7964  2
7965  3
7966  2
7967  1
7968  2
7969  1
7970  1
7971  2
7972  2
7973  0
7974  3
7975  4
7976  1
7977  1
7978  2
7979  3
7980  1
7981  4
7982  1
7983  2
7984  3
7985  2
7986  0
7987  1
7988  1
7989  2
7990  0
7991  3
7992  4
7993  1
7994  1
7995  2
7996  1
7997  2
7998  0
7999  3
8000  3
8001  2
8002  1
8003  0
8004  1
8005  3
8006  5
8007  2
8008  1
8009  3
8010  2
8011  0
8012  1
8013  1
8014  2
8015  3
8016  0
8017  1
8018  1
8019  3
8020  2
8021  1
8022  3
8023  3
8024  3
8025  5
8026  3
8027  2
8028  2
8029  4
8030  5
8031  1
8032  2
8033  4
8034  3
8035  0
8036  3
8037  0
8038  4
8039  0
8040  1
8041  0
8042  2
8043  1
8044  3
8045  3
8046  1
8047  2
8048  5
8049  1
8050  4
8051  0
8052  2
8053  1
8054  1
8055  1
8056  1
8057  1
8058  2
8059  3
8060  3
8061  2
8062  5
8063  1
8064  2
8065  1
8066  3
8067  4
8068  0
8069  3
8070  2
8071  1
8072  4
8073  5
8074  2
8075  2
8076  0
8077  1
8078  1
8079  2
8080  1
8081  3
8082  2
8083  2
8084  5
8085  3
8086  3
8087  1
8088  0
8089  2
8090  2
8091  2
8092  1
8093  0
8094  1
8095  1
8096  0
8097  0
8098  1
8099  0
8100  2
8101  0
8102  0
8103  2
8104  1
8105  3
8106  0
8107  2
8108  6
8109  2
8110  0
8111  3
8112  2
8113  2
8114  2
8115  1
8116  1
8117  2
8118  1
8119  3
8120  1
8121  0
8122  1
8123  0
8124  0
8125  1
8126  0
8127  2
8128  4
8129  1
8130  2
8131  0
8132  1
8133  2
8134  3
8135  2
8136  2
8137  2
8138  3
8139  2
8140  3
8141  2
8142  2
8143  0
8144  2
8145  2
8146  3
8147  1
8148  0
8149  1
8150  6
8151  2
8152  6
8153  3
8154  3
8155  3
8156  3
8157  4
8158  2
8159  2
8160  2
8161  5
8162  2
8163  6
8164  16
8165  3
8166  7
8167  7
8168  5
8169  5
8170  1
8171  1
8172  3
8173  1
8174  3
8175  2
8176  2
8177  4
8178  0
8179  1
8180  1
8181  6
8182  4
8183  3
8184  4
8185  1
8186  4
8187  6
8188  2
8189  3
8190  0
8191  0
