0  2
1  0
2  0
3  0
4  0
5  0
6  0
7  0
8  0
9  0
10  0
11  0
12  0
13  0
14  0
15  0
16  0
17  0
18  0
19  0
20  0
21  0
22  0
23  0
24  0
25  0
26  0
27  0
28  0
29  0
30  0
31  0
32  0
33  0
34  0
35  0
36  0
37  0
38  0
39  0
40  0
41  0
42  0
43  0
44  0
45  0
46  0
47  0
48  0
49  0
50  0
51  0
52  0
53  0
54  0
55  0
56  0
57  0
58  0
59  0
60  0
61  0
62  0
63  0
64  0
65  0
66  0
67  0
68  0
69  0
70  0
71  0
72  0
73  0
74  0
75  0
76  0
77  0
78  0
79  0
80  0
81  0
82  0
83  0
84  0
85  0
86  0
87  0
88  0
89  0
90  0
91  0
92  0
93  0
94  0
95  0
96  0
97  0
98  0
99  0
100  0
101  0
102  0
103  0
104  0
105  0
106  0
107  0
108  0
109  0
110  0
111  0
112  0
113  0
114  0
115  0
116  0
117  0
118  0
119  0
120  0
121  0
122  0
123  0
124  0
125  0
126  0
127  0
128  0
129  0
130  0
131  0
132  0
133  0
134  0
135  0
136  0
137  0
138  0
139  0
140  0
141  0
142  0
143  0
144  0
145  0
146  0
147  0
148  0
149  0
150  0
151  0
152  0
153  0
154  0
155  0
156  0
157  0
158  0
159  0
160  0
161  0
162  0
163  0
164  0
165  0
166  0
167  0
168  0
169  0
170  0
171  0
172  0
173  0
174  0
175  0
176  0
177  0
178  0
179  0
180  0
181  0
182  0
183  0
184  0
185  0
186  0
187  0
188  0
189  0
190  0
191  0
192  0
193  0
194  0
195  1
196  0
197  0
198  0
199  0
200  0
201  0
202  0
203  0
204  0
205  0
206  0
207  0
208  0
209  0
210  0
211  1
212  0
213  0
214  0
215  0
216  0
217  0
218  0
219  0
220  0
221  0
222  0
223  0
224  0
225  0
226  0
227  0
228  0
229  0
230  0
231  0
232  0
233  0
234  0
235  0
236  0
237  0
238  0
239  0
240  0
241  0
242  0
243  0
244  0
245  0
246  0
247  2
248  1
249  0
250  0
251  0
252  0
253  1
254  1
255  2
256  3
257  3
258  2
259  3
260  8
261  3
262  10
263  5
264  13
265  12
266  12
267  16
268  18
269  18
270  19
271  14
272  27
273  35
274  29
275  34
276  27
277  30
278  31
279  28
280  35
281  34
282  31
283  35
284  34
285  55
286  51
287  53
288  54
289  54
290  49
291  47
292  58
293  55
294  55
295  61
296  58
297  49
298  61
299  57
300  65
301  55
302  68
303  65
304  63
305  56
306  54
307  73
308  73
309  79
310  64
311  78
312  77
313  79
314  76
315  76
316  74
317  88
318  67
319  104
320  86
321  98
322  77
323  83
324  90
325  92
326  83
327  95
328  90
329  92
330  98
331  81
332  91
333  81
334  88
335  76
336  88
337  80
338  75
339  93
340  88
341  101
342  90
343  103
344  95
345  91
346  97
347  100
348  92
349  97
350  94
351  96
352  82
353  93
354  69
355  90
356  95
357  96
358  77
359  102
360  98
361  101
362  81
363  79
364  85
365  106
366  94
367  112
368  106
369  92
370  110
371  103
372  90
373  99
374  89
375  83
376  91
377  99
378  104
379  82
380  96
381  99
382  98
383  100
384  78
385  95
386  103
387  113
388  80
389  97
390  86
391  78
392  92
393  106
394  99
395  93
396  108
397  93
398  112
399  103
400  106
401  114
402  112
403  101
404  105
405  96
406  90
407  106
408  103
409  84
410  99
411  97
412  75
413  108
414  97
415  115
416  108
417  103
418  107
419  111
420  97
421  96
422  110
423  112
424  84
425  106
426  93
427  107
428  112
429  94
430  111
431  99
432  112
433  110
434  125
435  102
436  83
437  104
438  105
439  96
440  115
441  89
442  110
443  103
444  109
445  111
446  112
447  102
448  125
449  107
450  90
451  104
452  102
453  98
454  100
455  115
456  111
457  115
458  110
459  101
460  109
461  99
462  98
463  110
464  99
465  105
466  102
467  101
468  112
469  85
470  119
471  102
472  126
473  109
474  102
475  127
476  107
477  110
478  108
479  115
480  107
481  122
482  96
483  98
484  109
485  97
486  102
487  96
488  129
489  96
490  113
491  96
492  117
493  115
494  111
495  111
496  96
497  109
498  122
499  109
500  119
501  113
502  102
503  126
504  119
505  120
506  107
507  127
508  121
509  121
510  116
511  116
512  129
513  125
514  133
515  129
516  109
517  130
518  123
519  124
520  115
521  123
522  92
523  148
524  146
525  112
526  108
527  118
528  130
529  140
530  135
531  99
532  116
533  115
534  125
535  121
536  120
537  140
538  108
539  125
540  138
541  105
542  119
543  112
544  122
545  140
546  143
547  113
548  126
549  131
550  116
551  138
552  147
553  151
554  133
555  144
556  132
557  129
558  139
559  145
560  155
561  134
562  133
563  122
564  133
565  135
566  159
567  141
568  142
569  134
570  157
571  156
572  167
573  145
574  130
575  149
576  144
577  128
578  140
579  146
580  136
581  128
582  147
583  177
584  142
585  141
586  162
587  157
588  130
589  167
590  150
591  148
592  147
593  140
594  131
595  157
596  154
597  137
598  154
599  165
600  149
601  189
602  181
603  143
604  146
605  157
606  134
607  163
608  140
609  122
610  145
611  160
612  138
613  148
614  160
615  174
616  139
617  138
618  165
619  142
620  163
621  158
622  146
623  127
624  162
625  147
626  142
627  155
628  157
629  172
630  128
631  158
632  150
633  164
634  163
635  177
636  151
637  147
638  172
639  161
640  170
641  152
642  162
643  150
644  157
645  162
646  142
647  156
648  165
649  151
650  150
651  151
652  165
653  152
654  146
655  177
656  153
657  178
658  156
659  156
660  157
661  154
662  171
663  138
664  171
665  164
666  174
667  160
668  167
669  158
670  174
671  156
672  192
673  160
674  164
675  174
676  148
677  166
678  184
679  147
680  158
681  155
682  182
683  172
684  165
685  174
686  164
687  161
688  170
689  158
690  184
691  161
692  170
693  186
694  160
695  185
696  173
697  190
698  180
699  174
700  191
701  153
702  176
703  170
704  170
705  180
706  169
707  157
708  179
709  189
710  172
711  185
712  196
713  177
714  185
715  162
716  201
717  187
718  192
719  171
720  181
721  161
722  182
723  175
724  178
725  200
726  182
727  179
728  175
729  183
730  200
731  187
732  190
733  188
734  156
735  184
736  195
737  179
738  167
739  196
740  190
741  188
742  184
743  180
744  201
745  227
746  179
747  198
748  199
749  205
750  275
751  361
752  524
753  1081
754  2002
755  3402
756  5038
757  6069
758  6026
759  5023
760  3203
761  1722
762  821
763  420
764  253
765  163
766  171
767  147
768  142
769  145
770  141
771  121
772  132
773  168
774  144
775  142
776  146
777  139
778  134
779  137
780  122
781  123
782  125
783  150
784  148
785  132
786  132
787  141
788  138
789  130
790  126
791  141
792  136
793  130
794  129
795  137
796  159
797  134
798  137
799  126
800  137
801  153
802  126
803  119
804  116
805  132
806  132
807  114
808  149
809  118
810  134
811  123
812  135
813  135
814  118
815  120
816  122
817  132
818  140
819  151
820  119
821  135
822  122
823  118
824  129
825  110
826  137
827  139
828  144
829  130
830  115
831  131
832  150
833  105
834  128
835  105
836  110
837  138
838  127
839  142
840  153
841  137
842  112
843  125
844  120
845  118
846  120
847  131
848  128
849  116
850  139
851  108
852  108
853  118
854  139
855  128
856  129
857  134
858  124
859  126
860  115
861  125
862  116
863  122
864  114
865  134
866  126
867  124
868  128
869  115
870  108
871  127
872  142
873  102
874  131
875  128
876  125
877  104
878  136
879  107
880  130
881  123
882  117
883  125
884  111
885  99
886  118
887  129
888  129
889  125
890  133
891  117
892  117
893  120
894  118
895  117
896  123
897  110
898  139
899  123
900  130
901  137
902  117
903  133
904  128
905  127
906  127
907  120
908  124
909  118
910  115
911  109
912  130
913  141
914  117
915  113
916  124
917  106
918  115
919  129
920  136
921  138
922  105
923  121
924  88
925  117
926  135
927  124
928  116
929  123
930  115
931  123
932  117
933  110
934  123
935  118
936  125
937  111
938  104
939  113
940  134
941  123
942  113
943  121
944  123
945  104
946  132
947  126
948  110
949  123
950  109
951  114
952  125
953  126
954  114
955  129
956  121
957  107
958  122
959  151
960  128
961  102
962  117
963  114
964  131
965  109
966  108
967  101
968  94
969  114
970  107
971  121
972  118
973  107
974  115
975  114
976  120
977  135
978  107
979  86
980  101
981  113
982  98
983  124
984  99
985  125
986  119
987  108
988  113
989  135
990  115
991  96
992  110
993  95
994  97
995  101
996  107
997  96
998  117
999  112
1000  110
1001  91
1002  110
1003  107
1004  117
1005  117
1006  105
1007  118
1008  103
1009  114
1010  112
1011  122
1012  99
1013  120
1014  109
1015  101
1016  113
1017  123
1018  105
1019  110
1020  124
1021  97
1022  99
1023  104
1024  119
1025  88
1026  94
1027  95
1028  98
1029  110
1030  99
1031  117
1032  109
1033  126
1034  111
1035  112
1036  103
1037  121
1038  116
1039  113
1040  117
1041  120
1042  112
1043  120
1044  114
1045  126
1046  88
1047  110
1048  115
1049  96
1050  105
1051  96
1052  103
1053  114
1054  114
1055  101
1056  115
1057  106
1058  104
1059  103
1060  101
1061  104
1062  102
1063  119
1064  107
1065  84
1066  106
1067  96
1068  106
1069  115
1070  89
1071  110
1072  111
1073  103
1074  100
1075  105
1076  100
1077  110
1078  112
1079  109
1080  99
1081  105
1082  91
1083  100
1084  108
1085  96
1086  100
1087  113
1088  109
1089  104
1090  119
1091  117
1092  110
1093  115
1094  122
1095  102
1096  103
1097  118
1098  113
1099  119
1100  101
1101  102
1102  99
1103  104
1104  100
1105  90
1106  106
1107  117
1108  91
1109  107
1110  104
1111  108
1112  98
1113  86
1114  120
1115  102
1116  112
1117  103
1118  102
1119  96
1120  75
1121  90
1122  110
1123  97
1124  109
1125  107
1126  99
1127  91
1128  113
1129  101
1130  86
1131  104
1132  114
1133  106
1134  101
1135  106
1136  92
1137  103
1138  88
1139  104
1140  104
1141  94
1142  98
1143  89
1144  92
1145  85
1146  95
1147  96
1148  85
1149  98
1150  89
1151  79
1152  98
1153  104
1154  114
1155  91
1156  85
1157  98
1158  96
1159  94
1160  87
1161  82
1162  93
1163  93
1164  81
1165  95
1166  85
1167  82
1168  93
1169  86
1170  75
1171  96
1172  71
1173  77
1174  85
1175  73
1176  96
1177  78
1178  85
1179  75
1180  76
1181  87
1182  93
1183  88
1184  87
1185  76
1186  80
1187  93
1188  79
1189  72
1190  75
1191  70
1192  77
1193  77
1194  59
1195  67
1196  94
1197  80
1198  104
1199  85
1200  82
1201  91
1202  82
1203  68
1204  88
1205  78
1206  86
1207  89
1208  77
1209  84
1210  63
1211  86
1212  73
1213  72
1214  76
1215  78
1216  99
1217  76
1218  84
1219  77
1220  74
1221  83
1222  81
1223  91
1224  85
1225  67
1226  80
1227  79
1228  84
1229  77
1230  70
1231  78
1232  93
1233  76
1234  92
1235  71
1236  74
1237  89
1238  72
1239  90
1240  75
1241  77
1242  97
1243  69
1244  96
1245  66
1246  70
1247  83
1248  94
1249  92
1250  86
1251  65
1252  90
1253  65
1254  70
1255  61
1256  73
1257  81
1258  66
1259  61
1260  79
1261  87
1262  62
1263  83
1264  82
1265  62
1266  85
1267  84
1268  83
1269  73
1270  61
1271  82
1272  83
1273  83
1274  81
1275  60
1276  65
1277  86
1278  78
1279  83
1280  77
1281  88
1282  85
1283  73
1284  75
1285  66
1286  80
1287  47
1288  67
1289  62
1290  82
1291  64
1292  70
1293  59
1294  82
1295  78
1296  72
1297  73
1298  73
1299  86
1300  71
1301  79
1302  72
1303  90
1304  78
1305  70
1306  69
1307  88
1308  87
1309  65
1310  60
1311  67
1312  66
1313  90
1314  78
1315  72
1316  54
1317  70
1318  71
1319  79
1320  66
1321  72
1322  78
1323  68
1324  69
1325  65
1326  56
1327  56
1328  81
1329  76
1330  85
1331  65
1332  66
1333  75
1334  67
1335  65
1336  76
1337  64
1338  72
1339  60
1340  80
1341  70
1342  64
1343  58
1344  63
1345  58
1346  78
1347  72
1348  62
1349  51
1350  70
1351  73
1352  69
1353  76
1354  64
1355  67
1356  73
1357  53
1358  59
1359  60
1360  82
1361  74
1362  68
1363  71
1364  73
1365  77
1366  79
1367  104
1368  118
1369  102
1370  78
1371  82
1372  83
1373  84
1374  64
1375  75
1376  62
1377  59
1378  56
1379  81
1380  58
1381  63
1382  70
1383  68
1384  73
1385  70
1386  74
1387  71
1388  87
1389  69
1390  71
1391  74
1392  84
1393  97
1394  137
1395  199
1396  285
1397  515
1398  750
1399  884
1400  887
1401  843
1402  562
1403  341
1404  199
1405  146
1406  73
1407  61
1408  66
1409  63
1410  58
1411  72
1412  81
1413  55
1414  61
1415  63
1416  60
1417  53
1418  66
1419  61
1420  71
1421  59
1422  49
1423  51
1424  55
1425  68
1426  63
1427  54
1428  66
1429  65
1430  61
1431  60
1432  59
1433  54
1434  57
1435  58
1436  82
1437  65
1438  42
1439  56
1440  60
1441  46
1442  48
1443  44
1444  50
1445  53
1446  55
1447  55
1448  61
1449  56
1450  36
1451  51
1452  61
1453  55
1454  38
1455  55
1456  47
1457  55
1458  49
1459  42
1460  54
1461  70
1462  53
1463  63
1464  64
1465  57
1466  55
1467  38
1468  49
1469  48
1470  49
1471  48
1472  55
1473  54
1474  60
1475  53
1476  59
1477  59
1478  54
1479  42
1480  53
1481  48
1482  50
1483  47
1484  50
1485  42
1486  50
1487  50
1488  60
1489  62
1490  51
1491  39
1492  46
1493  54
1494  54
1495  53
1496  44
1497  57
1498  53
1499  56
1500  55
1501  50
1502  45
1503  44
1504  51
1505  39
1506  48
1507  65
1508  40
1509  49
1510  39
1511  35
1512  54
1513  50
1514  57
1515  45
1516  55
1517  50
1518  48
1519  48
1520  47
1521  38
1522  66
1523  61
1524  55
1525  53
1526  58
1527  53
1528  45
1529  62
1530  54
1531  48
1532  55
1533  64
1534  63
1535  62
1536  69
1537  56
1538  55
1539  51
1540  58
1541  54
1542  55
1543  48
1544  39
1545  56
1546  52
1547  53
1548  47
1549  54
1550  41
1551  57
1552  48
1553  52
1554  60
1555  49
1556  39
1557  60
1558  46
1559  42
1560  49
1561  41
1562  52
1563  58
1564  53
1565  35
1566  54
1567  58
1568  51
1569  42
1570  51
1571  31
1572  44
1573  50
1574  47
1575  49
1576  52
1577  50
1578  42
1579  48
1580  40
1581  41
1582  56
1583  40
1584  31
1585  34
1586  50
1587  50
1588  47
1589  65
1590  48
1591  46
1592  50
1593  41
1594  62
1595  44
1596  42
1597  44
1598  51
1599  36
1600  46
1601  51
1602  35
1603  43
1604  47
1605  51
1606  38
1607  38
1608  46
1609  44
1610  46
1611  45
1612  46
1613  48
1614  43
1615  58
1616  44
1617  43
1618  51
1619  43
1620  41
1621  59
1622  48
1623  46
1624  47
1625  43
1626  44
1627  41
1628  37
1629  44
1630  47
1631  32
1632  54
1633  41
1634  41
1635  48
1636  41
1637  40
1638  40
1639  43
1640  51
1641  47
1642  37
1643  53
1644  47
1645  35
1646  34
1647  40
1648  46
1649  50
1650  46
1651  52
1652  37
1653  54
1654  42
1655  49
1656  50
1657  47
1658  47
1659  70
1660  48
1661  73
1662  72
1663  105
1664  113
1665  89
1666  79
1667  62
1668  54
1669  58
1670  43
1671  58
1672  33
1673  49
1674  56
1675  43
1676  34
1677  34
1678  45
1679  39
1680  57
1681  37
1682  32
1683  41
1684  48
1685  50
1686  41
1687  40
1688  56
1689  47
1690  53
1691  47
1692  49
1693  45
1694  47
1695  34
1696  40
1697  36
1698  36
1699  40
1700  46
1701  36
1702  37
1703  43
1704  25
1705  27
1706  35
1707  44
1708  33
1709  46
1710  53
1711  47
1712  34
1713  42
1714  37
1715  44
1716  34
1717  45
1718  41
1719  47
1720  45
1721  33
1722  37
1723  39
1724  40
1725  41
1726  35
1727  32
1728  41
1729  42
1730  31
1731  38
1732  38
1733  54
1734  49
1735  40
1736  43
1737  45
1738  54
1739  38
1740  35
1741  37
1742  30
1743  47
1744  37
1745  28
1746  42
1747  43
1748  37
1749  34
1750  42
1751  37
1752  36
1753  40
1754  42
1755  47
1756  33
1757  46
1758  35
1759  35
1760  36
1761  32
1762  52
1763  41
1764  49
1765  48
1766  43
1767  47
1768  49
1769  45
1770  44
1771  36
1772  42
1773  39
1774  29
1775  30
1776  37
1777  49
1778  38
1779  38
1780  35
1781  35
1782  38
1783  41
1784  50
1785  35
1786  43
1787  43
1788  50
1789  38
1790  38
1791  49
1792  36
1793  44
1794  45
1795  40
1796  36
1797  39
1798  38
1799  42
1800  34
1801  48
1802  42
1803  31
1804  42
1805  34
1806  44
1807  39
1808  35
1809  47
1810  36
1811  29
1812  41
1813  27
1814  43
1815  45
1816  33
1817  41
1818  41
1819  29
1820  42
1821  39
1822  36
1823  40
1824  32
1825  31
1826  42
1827  48
1828  29
1829  41
1830  37
1831  43
1832  45
1833  43
1834  40
1835  36
1836  52
1837  45
1838  39
1839  47
1840  34
1841  58
1842  36
1843  33
1844  44
1845  46
1846  45
1847  48
1848  39
1849  32
1850  39
1851  33
1852  45
1853  33
1854  30
1855  42
1856  50
1857  27
1858  43
1859  55
1860  24
1861  42
1862  50
1863  41
1864  39
1865  48
1866  35
1867  30
1868  34
1869  35
1870  36
1871  37
1872  39
1873  33
1874  36
1875  47
1876  41
1877  33
1878  40
1879  40
1880  25
1881  40
1882  48
1883  34
1884  47
1885  40
1886  36
1887  52
1888  40
1889  32
1890  50
1891  43
1892  26
1893  41
1894  38
1895  41
1896  38
1897  37
1898  43
1899  35
1900  31
1901  43
1902  34
1903  37
1904  50
1905  46
1906  39
1907  57
1908  87
1909  119
1910  185
1911  392
1912  670
1913  1003
1914  1360
1915  1624
1916  1818
1917  1701
1918  1369
1919  988
1920  566
1921  308
1922  181
1923  75
1924  40
1925  36
1926  29
1927  35
1928  34
1929  33
1930  36
1931  29
1932  39
1933  44
1934  40
1935  32
1936  28
1937  29
1938  33
1939  35
1940  41
1941  36
1942  34
1943  25
1944  41
1945  29
1946  35
1947  37
1948  29
1949  31
1950  30
1951  38
1952  41
1953  53
1954  54
1955  57
1956  68
1957  80
1958  62
1959  57
1960  32
1961  44
1962  33
1963  40
1964  20
1965  33
1966  34
1967  30
1968  33
1969  36
1970  38
1971  22
1972  21
1973  31
1974  33
1975  27
1976  25
1977  28
1978  33
1979  29
1980  31
1981  25
1982  29
1983  27
1984  32
1985  19
1986  27
1987  34
1988  29
1989  26
1990  33
1991  28
1992  27
1993  37
1994  29
1995  37
1996  28
1997  34
1998  28
1999  31
2000  25
2001  22
2002  29
2003  34
2004  30
2005  23
2006  23
2007  18
2008  36
2009  28
2010  36
2011  34
2012  24
2013  19
2014  25
2015  36
2016  22
2017  33
2018  25
2019  26
2020  31
2021  37
2022  37
2023  33
2024  30
2025  28
2026  40
2027  32
2028  31
2029  36
2030  46
2031  50
2032  57
2033  58
2034  56
2035  59
2036  82
2037  75
2038  86
2039  80
2040  50
2041  50
2042  45
2043  25
2044  28
2045  15
2046  35
2047  30
2048  37
2049  21
2050  23
2051  18
2052  35
2053  26
2054  31
2055  26
2056  26
2057  25
2058  28
2059  27
2060  30
2061  25
2062  26
2063  23
2064  24
2065  25
2066  21
2067  25
2068  26
2069  28
2070  27
2071  34
2072  30
2073  25
2074  20
2075  24
2076  26
2077  38
2078  30
2079  27
2080  26
2081  26
2082  29
2083  27
2084  32
2085  40
2086  27
2087  36
2088  26
2089  22
2090  38
2091  27
2092  36
2093  27
2094  21
2095  28
2096  21
2097  27
2098  28
2099  24
2100  37
2101  31
2102  31
2103  25
2104  21
2105  25
2106  24
2107  25
2108  36
2109  27
2110  32
2111  30
2112  25
2113  31
2114  25
2115  24
2116  26
2117  27
2118  18
2119  28
2120  23
2121  33
2122  28
2123  30
2124  30
2125  24
2126  32
2127  22
2128  19
2129  32
2130  32
2131  32
2132  32
2133  26
2134  28
2135  41
2136  20
2137  26
2138  28
2139  33
2140  23
2141  22
2142  26
2143  24
2144  30
2145  30
2146  31
2147  29
2148  27
2149  25
2150  25
2151  24
2152  22
2153  38
2154  27
2155  14
2156  18
2157  32
2158  28
2159  28
2160  30
2161  22
2162  17
2163  32
2164  33
2165  30
2166  26
2167  25
2168  19
2169  15
2170  26
2171  20
2172  18
2173  34
2174  36
2175  19
2176  30
2177  28
2178  25
2179  31
2180  29
2181  38
2182  29
2183  33
2184  27
2185  35
2186  31
2187  32
2188  33
2189  38
2190  25
2191  35
2192  24
2193  19
2194  30
2195  30
2196  28
2197  31
2198  26
2199  20
2200  23
2201  25
2202  32
2203  21
2204  23
2205  35
2206  27
2207  25
2208  27
2209  25
2210  31
2211  30
2212  27
2213  32
2214  22
2215  28
2216  27
2217  24
2218  31
2219  27
2220  19
2221  27
2222  25
2223  21
2224  23
2225  23
2226  29
2227  25
2228  29
2229  32
2230  28
2231  23
2232  22
2233  35
2234  26
2235  18
2236  33
2237  29
2238  30
2239  26
2240  33
2241  26
2242  29
2243  28
2244  32
2245  22
2246  24
2247  30
2248  22
2249  27
2250  21
2251  30
2252  22
2253  25
2254  32
2255  40
2256  38
2257  51
2258  53
2259  80
2260  136
2261  121
2262  116
2263  134
2264  114
2265  97
2266  74
2267  45
2268  36
2269  28
2270  30
2271  26
2272  22
2273  22
2274  24
2275  27
2276  23
2277  21
2278  28
2279  25
2280  16
2281  23
2282  17
2283  27
2284  33
2285  40
2286  26
2287  26
2288  38
2289  36
2290  19
2291  22
2292  22
2293  28
2294  23
2295  18
2296  25
2297  26
2298  30
2299  28
2300  21
2301  24
2302  27
2303  22
2304  20
2305  36
2306  23
2307  21
2308  24
2309  27
2310  27
2311  33
2312  25
2313  35
2314  22
2315  25
2316  22
2317  25
2318  22
2319  26
2320  22
2321  21
2322  24
2323  20
2324  23
2325  21
2326  30
2327  29
2328  31
2329  23
2330  27
2331  28
2332  25
2333  30
2334  20
2335  23
2336  17
2337  16
2338  28
2339  25
2340  20
2341  30
2342  23
2343  29
2344  18
2345  25
2346  23
2347  22
2348  31
2349  28
2350  21
2351  23
2352  25
2353  19
2354  31
2355  23
2356  23
2357  29
2358  29
2359  25
2360  24
2361  27
2362  21
2363  24
2364  33
2365  27
2366  27
2367  29
2368  26
2369  23
2370  21
2371  20
2372  27
2373  19
2374  19
2375  22
2376  32
2377  25
2378  20
2379  24
2380  26
2381  25
2382  19
2383  28
2384  25
2385  18
2386  27
2387  31
2388  26
2389  34
2390  24
2391  28
2392  18
2393  18
2394  23
2395  20
2396  19
2397  25
2398  23
2399  21
2400  27
2401  26
2402  24
2403  25
2404  27
2405  16
2406  35
2407  18
2408  24
2409  24
2410  26
2411  23
2412  24
2413  23
2414  17
2415  31
2416  26
2417  24
2418  27
2419  26
2420  28
2421  20
2422  36
2423  24
2424  31
2425  27
2426  52
2427  60
2428  82
2429  106
2430  139
2431  165
2432  183
2433  142
2434  138
2435  96
2436  86
2437  55
2438  29
2439  31
2440  26
2441  23
2442  19
2443  22
2444  22
2445  22
2446  25
2447  24
2448  24
2449  18
2450  15
2451  26
2452  18
2453  24
2454  21
2455  29
2456  29
2457  27
2458  25
2459  20
2460  28
2461  22
2462  30
2463  19
2464  24
2465  36
2466  29
2467  17
2468  16
2469  26
2470  25
2471  28
2472  23
2473  24
2474  24
2475  19
2476  17
2477  21
2478  28
2479  24
2480  23
2481  16
2482  16
2483  28
2484  31
2485  21
2486  22
2487  20
2488  16
2489  16
2490  19
2491  24
2492  13
2493  25
2494  21
2495  28
2496  18
2497  19
2498  27
2499  21
2500  26
2501  28
2502  27
2503  26
2504  18
2505  24
2506  21
2507  32
2508  24
2509  29
2510  21
2511  16
2512  34
2513  29
2514  22
2515  19
2516  24
2517  14
2518  24
2519  22
2520  21
2521  25
2522  31
2523  23
2524  25
2525  26
2526  18
2527  22
2528  28
2529  32
2530  21
2531  28
2532  28
2533  26
2534  21
2535  21
2536  24
2537  21
2538  22
2539  29
2540  27
2541  32
2542  23
2543  30
2544  28
2545  18
2546  27
2547  22
2548  25
2549  29
2550  26
2551  23
2552  20
2553  28
2554  22
2555  26
2556  18
2557  31
2558  26
2559  15
2560  25
2561  8
2562  19
2563  18
2564  21
2565  19
2566  18
2567  24
2568  30
2569  27
2570  17
2571  25
2572  27
2573  22
2574  26
2575  22
2576  20
2577  15
2578  31
2579  23
2580  26
2581  28
2582  31
2583  23
2584  30
2585  16
2586  26
2587  27
2588  20
2589  26
2590  21
2591  29
2592  21
2593  27
2594  31
2595  21
2596  29
2597  24
2598  28
2599  26
2600  19
2601  26
2602  19
2603  17
2604  20
2605  17
2606  25
2607  21
2608  26
2609  32
2610  26
2611  21
2612  22
2613  12
2614  17
2615  23
2616  28
2617  25
2618  27
2619  22
2620  22
2621  27
2622  27
2623  17
2624  14
2625  35
2626  12
2627  23
2628  16
2629  23
2630  25
2631  30
2632  22
2633  24
2634  20
2635  18
2636  31
2637  23
2638  27
2639  18
2640  26
2641  33
2642  27
2643  26
2644  25
2645  16
2646  22
2647  22
2648  23
2649  29
2650  26
2651  17
2652  20
2653  26
2654  22
2655  23
2656  21
2657  31
2658  26
2659  29
2660  23
2661  37
2662  35
2663  41
2664  34
2665  38
2666  35
2667  23
2668  28
2669  14
2670  20
2671  24
2672  38
2673  21
2674  21
2675  30
2676  20
2677  25
2678  15
2679  29
2680  21
2681  28
2682  29
2683  15
2684  26
2685  20
2686  30
2687  16
2688  30
2689  24
2690  24
2691  27
2692  31
2693  30
2694  31
2695  16
2696  20
2697  19
2698  30
2699  22
2700  21
2701  31
2702  29
2703  17
2704  15
2705  25
2706  25
2707  26
2708  22
2709  28
2710  10
2711  26
2712  25
2713  20
2714  19
2715  19
2716  11
2717  28
2718  23
2719  20
2720  25
2721  28
2722  32
2723  23
2724  28
2725  21
2726  19
2727  20
2728  26
2729  23
2730  18
2731  14
2732  33
2733  18
2734  24
2735  15
2736  29
2737  32
2738  24
2739  29
2740  22
2741  32
2742  26
2743  26
2744  23
2745  25
2746  19
2747  27
2748  21
2749  29
2750  25
2751  28
2752  23
2753  26
2754  27
2755  23
2756  21
2757  18
2758  21
2759  31
2760  25
2761  25
2762  22
2763  27
2764  19
2765  27
2766  27
2767  19
2768  25
2769  20
2770  30
2771  29
2772  28
2773  26
2774  26
2775  38
2776  39
2777  33
2778  40
2779  27
2780  32
2781  30
2782  31
2783  34
2784  21
2785  28
2786  18
2787  20
2788  22
2789  19
2790  22
2791  25
2792  27
2793  24
2794  21
2795  15
2796  23
2797  31
2798  27
2799  31
2800  13
2801  24
2802  18
2803  28
2804  26
2805  34
2806  25
2807  23
2808  23
2809  20
2810  27
2811  27
2812  26
2813  25
2814  17
2815  21
2816  21
2817  18
2818  21
2819  27
2820  22
2821  32
2822  17
2823  28
2824  24
2825  33
2826  23
2827  22
2828  19
2829  32
2830  33
2831  22
2832  25
2833  25
2834  24
2835  28
2836  24
2837  20
2838  24
2839  18
2840  26
2841  22
2842  23
2843  24
2844  28
2845  26
2846  28
2847  21
2848  17
2849  24
2850  26
2851  23
2852  16
2853  23
2854  24
2855  22
2856  25
2857  16
2858  19
2859  32
2860  17
2861  20
2862  21
2863  31
2864  21
2865  24
2866  18
2867  17
2868  20
2869  26
2870  18
2871  20
2872  21
2873  35
2874  25
2875  21
2876  25
2877  33
2878  17
2879  17
2880  22
2881  18
2882  28
2883  28
2884  11
2885  15
2886  23
2887  16
2888  23
2889  23
2890  20
2891  15
2892  21
2893  19
2894  15
2895  16
2896  23
2897  26
2898  23
2899  20
2900  37
2901  24
2902  16
2903  30
2904  22
2905  21
2906  28
2907  25
2908  20
2909  22
2910  30
2911  27
2912  24
2913  16
2914  24
2915  27
2916  27
2917  14
2918  16
2919  14
2920  20
2921  21
2922  18
2923  16
2924  21
2925  28
2926  19
2927  36
2928  20
2929  21
2930  24
2931  29
2932  25
2933  23
2934  18
2935  13
2936  26
2937  20
2938  19
2939  19
2940  19
2941  16
2942  27
2943  33
2944  25
2945  20
2946  22
2947  23
2948  33
2949  25
2950  20
2951  29
2952  25
2953  28
2954  18
2955  31
2956  25
2957  28
2958  17
2959  22
2960  28
2961  32
2962  27
2963  17
2964  27
2965  22
2966  14
2967  25
2968  20
2969  25
2970  23
2971  19
2972  18
2973  19
2974  21
2975  28
2976  19
2977  25
2978  26
2979  22
2980  31
2981  24
2982  12
2983  30
2984  19
2985  19
2986  26
2987  25
2988  20
2989  15
2990  19
2991  27
2992  27
2993  21
2994  21
2995  25
2996  24
2997  28
2998  22
2999  34
3000  25
3001  21
3002  24
3003  19
3004  17
3005  22
3006  13
3007  28
3008  21
3009  20
3010  25
3011  22
3012  30
3013  23
3014  35
3015  16
3016  17
3017  26
3018  26
3019  18
3020  20
3021  25
3022  22
3023  19
3024  19
3025  28
3026  23
3027  16
3028  17
3029  27
3030  21
3031  35
3032  26
3033  22
3034  20
3035  15
3036  28
3037  20
3038  24
3039  25
3040  15
3041  24
3042  19
3043  28
3044  22
3045  20
3046  22
3047  19
3048  26
3049  22
3050  34
3051  40
3052  34
3053  36
3054  43
3055  31
3056  27
3057  31
3058  24
3059  25
3060  19
3061  29
3062  28
3063  40
3064  36
3065  15
3066  24
3067  26
3068  17
3069  32
3070  27
3071  20
3072  25
3073  20
3074  24
3075  13
3076  16
3077  24
3078  14
3079  18
3080  27
3081  20
3082  28
3083  19
3084  23
3085  26
3086  25
3087  27
3088  27
3089  32
3090  24
3091  19
3092  36
3093  24
3094  23
3095  27
3096  26
3097  26
3098  21
3099  21
3100  23
3101  17
3102  22
3103  12
3104  34
3105  27
3106  24
3107  23
3108  18
3109  26
3110  18
3111  16
3112  31
3113  31
3114  26
3115  31
3116  33
3117  22
3118  22
3119  17
3120  26
3121  21
3122  29
3123  23
3124  29
3125  25
3126  26
3127  36
3128  25
3129  19
3130  28
3131  25
3132  22
3133  17
3134  16
3135  22
3136  21
3137  30
3138  13
3139  20
3140  27
3141  25
3142  30
3143  18
3144  31
3145  29
3146  26
3147  20
3148  28
3149  29
3150  28
3151  32
3152  38
3153  30
3154  34
3155  27
3156  35
3157  35
3158  26
3159  20
3160  23
3161  29
3162  30
3163  23
3164  28
3165  32
3166  38
3167  42
3168  41
3169  30
3170  41
3171  34
3172  33
3173  26
3174  25
3175  19
3176  21
3177  23
3178  22
3179  24
3180  16
3181  15
3182  14
3183  23
3184  18
3185  20
3186  26
3187  16
3188  15
3189  16
3190  23
3191  21
3192  22
3193  23
3194  25
3195  22
3196  27
3197  24
3198  24
3199  23
3200  21
3201  17
3202  20
3203  14
3204  18
3205  17
3206  26
3207  16
3208  20
3209  21
3210  26
3211  19
3212  25
3213  31
3214  24
3215  21
3216  18
3217  11
3218  27
3219  16
3220  20
3221  25
3222  19
3223  16
3224  29
3225  23
3226  20
3227  14
3228  24
3229  25
3230  11
3231  14
3232  10
3233  17
3234  21
3235  9
3236  19
3237  13
3238  17
3239  24
3240  24
3241  16
3242  18
3243  11
3244  26
3245  16
3246  14
3247  18
3248  17
3249  17
3250  20
3251  19
3252  21
3253  16
3254  24
3255  19
3256  21
3257  26
3258  24
3259  23
3260  25
3261  17
3262  21
3263  22
3264  22
3265  18
3266  16
3267  20
3268  15
3269  17
3270  16
3271  24
3272  21
3273  28
3274  22
3275  21
3276  29
3277  27
3278  14
3279  20
3280  19
3281  17
3282  17
3283  41
3284  37
3285  35
3286  45
3287  58
3288  54
3289  50
3290  46
3291  36
3292  31
3293  19
3294  19
3295  24
3296  24
3297  19
3298  18
3299  15
3300  18
3301  18
3302  13
3303  17
3304  21
3305  25
3306  28
3307  10
3308  26
3309  23
3310  23
3311  15
3312  18
3313  24
3314  18
3315  20
3316  22
3317  25
3318  19
3319  22
3320  17
3321  21
3322  20
3323  21
3324  29
3325  17
3326  22
3327  24
3328  18
3329  24
3330  27
3331  24
3332  17
3333  19
3334  24
3335  20
3336  11
3337  25
3338  20
3339  26
3340  24
3341  19
3342  20
3343  18
3344  24
3345  17
3346  18
3347  20
3348  22
3349  21
3350  15
3351  18
3352  19
3353  16
3354  20
3355  20
3356  23
3357  14
3358  10
3359  20
3360  25
3361  23
3362  21
3363  20
3364  22
3365  21
3366  20
3367  26
3368  18
3369  19
3370  12
3371  13
3372  13
3373  19
3374  24
3375  22
3376  22
3377  10
3378  20
3379  18
3380  15
3381  14
3382  19
3383  21
3384  18
3385  17
3386  23
3387  19
3388  18
3389  26
3390  22
3391  21
3392  18
3393  19
3394  18
3395  20
3396  16
3397  12
3398  18
3399  17
3400  15
3401  16
3402  21
3403  10
3404  14
3405  22
3406  22
3407  26
3408  23
3409  13
3410  19
3411  21
3412  23
3413  15
3414  16
3415  15
3416  18
3417  16
3418  16
3419  20
3420  17
3421  23
3422  18
3423  12
3424  18
3425  20
3426  13
3427  16
3428  17
3429  13
3430  19
3431  19
3432  20
3433  11
3434  11
3435  15
3436  14
3437  24
3438  14
3439  18
3440  20
3441  17
3442  15
3443  19
3444  22
3445  26
3446  25
3447  16
3448  25
3449  12
3450  22
3451  18
3452  16
3453  21
3454  14
3455  22
3456  14
3457  20
3458  23
3459  21
3460  24
3461  25
3462  17
3463  23
3464  21
3465  20
3466  22
3467  17
3468  15
3469  15
3470  15
3471  21
3472  26
3473  26
3474  23
3475  34
3476  17
3477  21
3478  23
3479  28
3480  20
3481  19
3482  16
3483  21
3484  12
3485  20
3486  24
3487  10
3488  18
3489  16
3490  20
3491  27
3492  18
3493  18
3494  19
3495  16
3496  20
3497  15
3498  15
3499  17
3500  13
3501  18
3502  12
3503  16
3504  12
3505  27
3506  25
3507  18
3508  21
3509  18
3510  20
3511  14
3512  18
3513  19
3514  18
3515  18
3516  29
3517  25
3518  18
3519  14
3520  17
3521  16
3522  17
3523  14
3524  16
3525  19
3526  27
3527  14
3528  22
3529  20
3530  22
3531  20
3532  18
3533  16
3534  18
3535  20
3536  28
3537  22
3538  24
3539  28
3540  21
3541  27
3542  14
3543  23
3544  23
3545  23
3546  28
3547  18
3548  21
3549  25
3550  17
3551  13
3552  18
3553  22
3554  13
3555  24
3556  23
3557  25
3558  23
3559  20
3560  19
3561  28
3562  26
3563  28
3564  23
3565  15
3566  16
3567  20
3568  13
3569  23
3570  23
3571  21
3572  27
3573  17
3574  22
3575  26
3576  19
3577  17
3578  24
3579  20
3580  19
3581  19
3582  10
3583  13
3584  19
3585  13
3586  17
3587  13
3588  17
3589  15
3590  24
3591  19
3592  12
3593  20
3594  23
3595  22
3596  15
3597  18
3598  19
3599  17
3600  16
3601  19
3602  16
3603  15
3604  16
3605  24
3606  19
3607  16
3608  20
3609  23
3610  20
3611  14
3612  16
3613  17
3614  15
3615  14
3616  22
3617  28
3618  15
3619  14
3620  17
3621  18
3622  23
3623  23
3624  24
3625  18
3626  13
3627  16
3628  19
3629  20
3630  20
3631  24
3632  24
3633  23
3634  24
3635  18
3636  18
3637  18
3638  23
3639  19
3640  25
3641  20
3642  30
3643  34
3644  28
3645  40
3646  24
3647  36
3648  27
3649  20
3650  26
3651  29
3652  17
3653  20
3654  20
3655  15
3656  13
3657  19
3658  20
3659  18
3660  25
3661  20
3662  22
3663  15
3664  29
3665  22
3666  26
3667  22
3668  17
3669  19
3670  24
3671  18
3672  21
3673  19
3674  25
3675  11
3676  20
3677  17
3678  18
3679  23
3680  17
3681  13
3682  25
3683  23
3684  16
3685  14
3686  23
3687  18
3688  18
3689  29
3690  19
3691  24
3692  19
3693  22
3694  29
3695  25
3696  36
3697  40
3698  39
3699  39
3700  34
3701  27
3702  29
3703  19
3704  21
3705  23
3706  14
3707  17
3708  22
3709  18
3710  18
3711  17
3712  20
3713  19
3714  18
3715  23
3716  18
3717  13
3718  16
3719  17
3720  24
3721  18
3722  22
3723  19
3724  22
3725  22
3726  19
3727  15
3728  22
3729  22
3730  16
3731  13
3732  12
3733  19
3734  15
3735  11
3736  15
3737  22
3738  19
3739  15
3740  14
3741  22
3742  13
3743  20
3744  19
3745  23
3746  12
3747  22
3748  18
3749  17
3750  33
3751  17
3752  20
3753  16
3754  30
3755  11
3756  16
3757  21
3758  27
3759  17
3760  17
3761  15
3762  14
3763  16
3764  19
3765  24
3766  13
3767  16
3768  21
3769  20
3770  18
3771  20
3772  14
3773  22
3774  20
3775  11
3776  15
3777  22
3778  23
3779  22
3780  22
3781  18
3782  23
3783  16
3784  15
3785  17
3786  28
3787  18
3788  13
3789  24
3790  23
3791  15
3792  13
3793  16
3794  19
3795  14
3796  28
3797  17
3798  17
3799  24
3800  23
3801  15
3802  22
3803  23
3804  15
3805  17
3806  13
3807  22
3808  15
3809  24
3810  27
3811  20
3812  18
3813  19
3814  17
3815  13
3816  21
3817  24
3818  34
3819  23
3820  27
3821  29
3822  20
3823  23
3824  23
3825  28
3826  24
3827  17
3828  24
3829  19
3830  15
3831  19
3832  19
3833  19
3834  23
3835  26
3836  21
3837  16
3838  16
3839  17
3840  22
3841  27
3842  18
3843  15
3844  19
3845  17
3846  24
3847  24
3848  14
3849  21
3850  27
3851  22
3852  26
3853  23
3854  27
3855  22
3856  26
3857  23
3858  31
3859  27
3860  16
3861  23
3862  23
3863  23
3864  19
3865  19
3866  16
3867  18
3868  24
3869  20
3870  20
3871  18
3872  20
3873  17
3874  23
3875  18
3876  18
3877  18
3878  16
3879  19
3880  19
3881  18
3882  19
3883  20
3884  10
3885  21
3886  17
3887  26
3888  13
3889  14
3890  13
3891  16
3892  28
3893  20
3894  26
3895  20
3896  18
3897  29
3898  33
3899  21
3900  18
3901  21
3902  27
3903  14
3904  23
3905  20
3906  18
3907  19
3908  20
3909  17
3910  21
3911  12
3912  23
3913  12
3914  17
3915  12
3916  18
3917  19
3918  29
3919  14
3920  17
3921  18
3922  16
3923  19
3924  8
3925  21
3926  17
3927  16
3928  10
3929  21
3930  18
3931  27
3932  16
3933  14
3934  15
3935  21
3936  19
3937  19
3938  23
3939  22
3940  20
3941  16
3942  22
3943  20
3944  18
3945  13
3946  15
3947  15
3948  23
3949  18
3950  25
3951  25
3952  12
3953  14
3954  17
3955  21
3956  14
3957  14
3958  22
3959  16
3960  20
3961  16
3962  13
3963  21
3964  16
3965  13
3966  20
3967  19
3968  27
3969  17
3970  19
3971  20
3972  17
3973  15
3974  20
3975  25
3976  13
3977  18
3978  33
3979  17
3980  11
3981  19
3982  22
3983  18
3984  23
3985  20
3986  22
3987  20
3988  13
3989  16
3990  21
3991  12
3992  14
3993  19
3994  22
3995  12
3996  25
3997  21
3998  20
3999  21
4000  15
4001  13
4002  16
4003  22
4004  20
4005  15
4006  12
4007  16
4008  10
4009  17
4010  17
4011  18
4012  23
4013  22
4014  25
4015  12
4016  18
4017  12
4018  20
4019  14
4020  23
4021  17
4022  19
4023  18
4024  18
4025  18
4026  23
4027  20
4028  20
4029  23
4030  21
4031  19
4032  16
4033  18
4034  12
4035  20
4036  30
4037  19
4038  16
4039  28
4040  20
4041  12
4042  16
4043  15
4044  17
4045  21
4046  18
4047  22
4048  12
4049  16
4050  17
4051  23
4052  21
4053  18
4054  20
4055  19
4056  14
4057  21
4058  23
4059  12
4060  14
4061  21
4062  19
4063  22
4064  15
4065  15
4066  19
4067  18
4068  10
4069  17
4070  12
4071  32
4072  15
4073  19
4074  19
4075  19
4076  27
4077  17
4078  14
4079  9
4080  14
4081  15
4082  18
4083  11
4084  23
4085  15
4086  11
4087  20
4088  21
4089  14
4090  29
4091  20
4092  19
4093  19
4094  19
4095  20
4096  20
4097  20
4098  21
4099  26
4100  22
4101  15
4102  22
4103  15
4104  22
4105  21
4106  19
4107  18
4108  15
4109  24
4110  20
4111  10
4112  21
4113  16
4114  19
4115  22
4116  16
4117  19
4118  20
4119  18
4120  19
4121  19
4122  22
4123  14
4124  18
4125  19
4126  20
4127  18
4128  16
4129  20
4130  18
4131  16
4132  26
4133  17
4134  11
4135  17
4136  15
4137  15
4138  16
4139  21
4140  13
4141  13
4142  16
4143  9
4144  13
4145  22
4146  15
4147  19
4148  22
4149  19
4150  15
4151  20
4152  25
4153  20
4154  32
4155  40
4156  43
4157  55
4158  74
4159  118
4160  152
4161  210
4162  176
4163  230
4164  270
4165  235
4166  233
4167  187
4168  131
4169  99
4170  64
4171  42
4172  32
4173  17
4174  16
4175  14
4176  8
4177  15
4178  20
4179  16
4180  18
4181  12
4182  17
4183  21
4184  15
4185  19
4186  18
4187  17
4188  21
4189  18
4190  12
4191  17
4192  14
4193  15
4194  14
4195  13
4196  18
4197  14
4198  9
4199  11
4200  17
4201  10
4202  8
4203  20
4204  13
4205  13
4206  9
4207  19
4208  17
4209  19
4210  18
4211  16
4212  17
4213  12
4214  14
4215  19
4216  13
4217  8
4218  20
4219  10
4220  20
4221  9
4222  18
4223  12
4224  25
4225  13
4226  14
4227  17
4228  17
4229  16
4230  16
4231  17
4232  14
4233  20
4234  11
4235  20
4236  14
4237  14
4238  13
4239  19
4240  19
4241  20
4242  19
4243  17
4244  11
4245  14
4246  17
4247  13
4248  21
4249  22
4250  18
4251  14
4252  15
4253  25
4254  16
4255  22
4256  14
4257  24
4258  12
4259  15
4260  17
4261  19
4262  13
4263  14
4264  16
4265  8
4266  22
4267  16
4268  12
4269  15
4270  9
4271  18
4272  19
4273  10
4274  16
4275  18
4276  14
4277  18
4278  16
4279  15
4280  11
4281  13
4282  18
4283  16
4284  14
4285  14
4286  16
4287  10
4288  12
4289  19
4290  26
4291  15
4292  9
4293  15
4294  14
4295  23
4296  18
4297  15
4298  12
4299  13
4300  17
4301  14
4302  15
4303  15
4304  14
4305  14
4306  18
4307  11
4308  14
4309  15
4310  17
4311  11
4312  12
4313  12
4314  7
4315  14
4316  16
4317  21
4318  14
4319  14
4320  19
4321  18
4322  14
4323  14
4324  26
4325  21
4326  25
4327  30
4328  22
4329  27
4330  21
4331  14
4332  17
4333  16
4334  20
4335  17
4336  8
4337  17
4338  14
4339  19
4340  15
4341  17
4342  14
4343  11
4344  17
4345  8
4346  13
4347  23
4348  12
4349  18
4350  14
4351  24
4352  20
4353  16
4354  16
4355  15
4356  17
4357  18
4358  22
4359  13
4360  12
4361  10
4362  19
4363  15
4364  15
4365  12
4366  14
4367  22
4368  15
4369  17
4370  12
4371  16
4372  16
4373  31
4374  8
4375  14
4376  20
4377  18
4378  21
4379  12
4380  21
4381  10
4382  18
4383  26
4384  13
4385  16
4386  11
4387  12
4388  13
4389  17
4390  13
4391  9
4392  14
4393  19
4394  19
4395  15
4396  11
4397  10
4398  16
4399  13
4400  8
4401  18
4402  15
4403  16
4404  13
4405  18
4406  14
4407  19
4408  20
4409  15
4410  15
4411  12
4412  20
4413  18
4414  19
4415  10
4416  15
4417  20
4418  12
4419  19
4420  19
4421  20
4422  9
4423  16
4424  13
4425  12
4426  13
4427  14
4428  13
4429  18
4430  10
4431  21
4432  15
4433  12
4434  14
4435  11
4436  12
4437  10
4438  19
4439  17
4440  13
4441  22
4442  12
4443  12
4444  11
4445  15
4446  16
4447  18
4448  17
4449  15
4450  19
4451  12
4452  19
4453  12
4454  20
4455  19
4456  19
4457  18
4458  17
4459  10
4460  21
4461  6
4462  21
4463  17
4464  10
4465  15
4466  15
4467  17
4468  16
4469  23
4470  19
4471  16
4472  12
4473  17
4474  22
4475  20
4476  11
4477  18
4478  20
4479  16
4480  11
4481  20
4482  16
4483  18
4484  16
4485  20
4486  23
4487  17
4488  21
4489  16
4490  12
4491  15
4492  25
4493  13
4494  16
4495  12
4496  21
4497  21
4498  8
4499  10
4500  11
4501  17
4502  16
4503  12
4504  17
4505  10
4506  17
4507  13
4508  12
4509  11
4510  13
4511  11
4512  14
4513  12
4514  15
4515  12
4516  19
4517  16
4518  13
4519  20
4520  15
4521  7
4522  18
4523  13
4524  15
4525  18
4526  16
4527  20
4528  12
4529  20
4530  17
4531  17
4532  11
4533  17
4534  9
4535  23
4536  21
4537  23
4538  7
4539  13
4540  15
4541  22
4542  16
4543  14
4544  14
4545  17
4546  11
4547  14
4548  20
4549  11
4550  13
4551  15
4552  10
4553  20
4554  15
4555  14
4556  14
4557  14
4558  16
4559  12
4560  13
4561  20
4562  10
4563  12
4564  10
4565  18
4566  16
4567  8
4568  16
4569  23
4570  21
4571  10
4572  16
4573  13
4574  18
4575  12
4576  17
4577  19
4578  16
4579  9
4580  23
4581  14
4582  21
4583  26
4584  16
4585  14
4586  21
4587  18
4588  13
4589  23
4590  21
4591  19
4592  13
4593  20
4594  13
4595  13
4596  18
4597  8
4598  17
4599  19
4600  14
4601  13
4602  12
4603  12
4604  9
4605  13
4606  14
4607  24
4608  19
4609  17
4610  23
4611  21
4612  22
4613  25
4614  29
4615  35
4616  52
4617  50
4618  58
4619  58
4620  82
4621  86
4622  79
4623  65
4624  54
4625  58
4626  34
4627  33
4628  25
4629  24
4630  19
4631  14
4632  21
4633  15
4634  13
4635  15
4636  20
4637  13
4638  14
4639  15
4640  18
4641  22
4642  18
4643  20
4644  17
4645  20
4646  14
4647  13
4648  16
4649  13
4650  13
4651  16
4652  21
4653  17
4654  17
4655  18
4656  13
4657  16
4658  13
4659  14
4660  20
4661  14
4662  11
4663  19
4664  13
4665  20
4666  14
4667  12
4668  16
4669  17
4670  21
4671  14
4672  13
4673  15
4674  14
4675  14
4676  15
4677  15
4678  15
4679  14
4680  16
4681  17
4682  14
4683  15
4684  12
4685  16
4686  16
4687  20
4688  22
4689  22
4690  14
4691  18
4692  10
4693  15
4694  12
4695  17
4696  21
4697  18
4698  9
4699  13
4700  11
4701  13
4702  17
4703  15
4704  17
4705  21
4706  15
4707  11
4708  15
4709  20
4710  16
4711  11
4712  12
4713  8
4714  15
4715  10
4716  14
4717  14
4718  17
4719  12
4720  13
4721  14
4722  15
4723  7
4724  13
4725  10
4726  23
4727  16
4728  13
4729  12
4730  10
4731  11
4732  19
4733  17
4734  15
4735  14
4736  15
4737  8
4738  10
4739  12
4740  15
4741  19
4742  24
4743  20
4744  13
4745  13
4746  18
4747  10
4748  15
4749  14
4750  11
4751  14
4752  11
4753  21
4754  20
4755  13
4756  9
4757  17
4758  18
4759  13
4760  18
4761  19
4762  12
4763  7
4764  13
4765  8
4766  11
4767  16
4768  21
4769  9
4770  15
4771  12
4772  19
4773  15
4774  10
4775  13
4776  21
4777  12
4778  16
4779  10
4780  9
4781  12
4782  6
4783  9
4784  14
4785  13
4786  15
4787  18
4788  15
4789  13
4790  14
4791  15
4792  9
4793  12
4794  12
4795  11
4796  12
4797  18
4798  16
4799  10
4800  10
4801  14
4802  11
4803  11
4804  9
4805  9
4806  13
4807  12
4808  10
4809  15
4810  15
4811  8
4812  5
4813  16
4814  15
4815  12
4816  23
4817  18
4818  17
4819  15
4820  12
4821  15
4822  15
4823  9
4824  11
4825  8
4826  11
4827  12
4828  6
4829  9
4830  11
4831  7
4832  11
4833  6
4834  11
4835  8
4836  11
4837  11
4838  13
4839  13
4840  12
4841  5
4842  18
4843  12
4844  20
4845  19
4846  17
4847  23
4848  23
4849  12
4850  19
4851  11
4852  14
4853  16
4854  11
4855  11
4856  7
4857  12
4858  12
4859  13
4860  10
4861  13
4862  10
4863  12
4864  10
4865  9
4866  8
4867  8
4868  10
4869  15
4870  8
4871  17
4872  11
4873  9
4874  5
4875  11
4876  9
4877  13
4878  6
4879  10
4880  15
4881  14
4882  19
4883  12
4884  13
4885  15
4886  11
4887  18
4888  20
4889  14
4890  13
4891  13
4892  16
4893  15
4894  13
4895  4
4896  12
4897  8
4898  5
4899  10
4900  11
4901  6
4902  15
4903  12
4904  14
4905  12
4906  10
4907  10
4908  11
4909  10
4910  10
4911  14
4912  8
4913  9
4914  5
4915  12
4916  10
4917  11
4918  9
4919  6
4920  11
4921  16
4922  12
4923  17
4924  11
4925  12
4926  8
4927  16
4928  13
4929  16
4930  9
4931  9
4932  14
4933  16
4934  11
4935  10
4936  17
4937  9
4938  21
4939  14
4940  11
4941  11
4942  6
4943  12
4944  14
4945  11
4946  12
4947  9
4948  14
4949  11
4950  8
4951  8
4952  11
4953  10
4954  8
4955  10
4956  8
4957  8
4958  16
4959  11
4960  7
4961  17
4962  10
4963  9
4964  7
4965  11
4966  10
4967  14
4968  11
4969  16
4970  6
4971  12
4972  8
4973  10
4974  7
4975  5
4976  9
4977  7
4978  13
4979  12
4980  10
4981  9
4982  19
4983  6
4984  5
4985  10
4986  7
4987  8
4988  12
4989  11
4990  2
4991  12
4992  7
4993  12
4994  11
4995  8
4996  16
4997  8
4998  8
4999  13
5000  8
5001  10
5002  6
5003  12
5004  8
5005  14
5006  12
5007  15
5008  7
5009  10
5010  14
5011  9
5012  13
5013  10
5014  5
5015  9
5016  16
5017  9
5018  3
5019  6
5020  9
5021  13
5022  13
5023  5
5024  5
5025  13
5026  6
5027  13
5028  9
5029  10
5030  9
5031  8
5032  12
5033  8
5034  10
5035  11
5036  9
5037  10
5038  13
5039  8
5040  8
5041  19
5042  12
5043  4
5044  12
5045  11
5046  11
5047  5
5048  10
5049  10
5050  13
5051  6
5052  7
5053  13
5054  7
5055  10
5056  16
5057  11
5058  10
5059  9
5060  13
5061  16
5062  7
5063  17
5064  11
5065  7
5066  16
5067  9
5068  7
5069  5
5070  6
5071  13
5072  13
5073  6
5074  7
5075  15
5076  9
5077  6
5078  8
5079  2
5080  7
5081  12
5082  8
5083  16
5084  8
5085  9
5086  9
5087  7
5088  7
5089  8
5090  13
5091  11
5092  5
5093  9
5094  7
5095  7
5096  12
5097  10
5098  13
5099  8
5100  8
5101  6
5102  8
5103  9
5104  11
5105  15
5106  10
5107  13
5108  16
5109  10
5110  23
5111  31
5112  37
5113  42
5114  62
5115  83
5116  118
5117  131
5118  162
5119  191
5120  186
5121  166
5122  184
5123  192
5124  171
5125  131
5126  85
5127  56
5128  57
5129  26
5130  23
5131  13
5132  8
5133  6
5134  12
5135  9
5136  9
5137  6
5138  6
5139  8
5140  7
5141  13
5142  8
5143  7
5144  14
5145  20
5146  9
5147  15
5148  15
5149  21
5150  12
5151  6
5152  8
5153  13
5154  10
5155  5
5156  11
5157  8
5158  12
5159  5
5160  6
5161  13
5162  15
5163  4
5164  9
5165  8
5166  12
5167  14
5168  13
5169  6
5170  5
5171  5
5172  4
5173  12
5174  6
5175  10
5176  15
5177  7
5178  10
5179  6
5180  11
5181  3
5182  7
5183  15
5184  7
5185  12
5186  8
5187  5
5188  4
5189  4
5190  10
5191  7
5192  7
5193  12
5194  10
5195  9
5196  4
5197  12
5198  8
5199  9
5200  14
5201  10
5202  9
5203  7
5204  6
5205  9
5206  14
5207  5
5208  5
5209  7
5210  10
5211  4
5212  7
5213  5
5214  8
5215  11
5216  7
5217  9
5218  18
5219  8
5220  4
5221  5
5222  11
5223  9
5224  9
5225  13
5226  6
5227  8
5228  7
5229  4
5230  9
5231  7
5232  8
5233  4
5234  4
5235  4
5236  7
5237  8
5238  7
5239  13
5240  8
5241  6
5242  5
5243  11
5244  5
5245  9
5246  11
5247  8
5248  12
5249  15
5250  7
5251  8
5252  12
5253  6
5254  9
5255  6
5256  5
5257  9
5258  5
5259  12
5260  9
5261  5
5262  6
5263  10
5264  7
5265  5
5266  5
5267  11
5268  10
5269  5
5270  6
5271  7
5272  9
5273  8
5274  6
5275  10
5276  9
5277  8
5278  5
5279  5
5280  7
5281  5
5282  3
5283  12
5284  7
5285  9
5286  9
5287  12
5288  14
5289  5
5290  7
5291  8
5292  7
5293  7
5294  6
5295  8
5296  8
5297  4
5298  12
5299  8
5300  6
5301  10
5302  6
5303  11
5304  5
5305  4
5306  9
5307  5
5308  8
5309  5
5310  5
5311  11
5312  9
5313  5
5314  6
5315  6
5316  7
5317  14
5318  11
5319  11
5320  7
5321  8
5322  4
5323  5
5324  6
5325  8
5326  6
5327  10
5328  9
5329  8
5330  12
5331  15
5332  16
5333  16
5334  16
5335  16
5336  15
5337  20
5338  13
5339  12
5340  12
5341  8
5342  8
5343  9
5344  8
5345  5
5346  8
5347  7
5348  5
5349  4
5350  9
5351  6
5352  6
5353  8
5354  11
5355  3
5356  3
5357  5
5358  6
5359  6
5360  5
5361  6
5362  10
5363  5
5364  5
5365  7
5366  14
5367  5
5368  3
5369  8
5370  10
5371  5
5372  11
5373  8
5374  5
5375  9
5376  11
5377  5
5378  8
5379  11
5380  6
5381  7
5382  4
5383  4
5384  10
5385  7
5386  10
5387  11
5388  8
5389  7
5390  13
5391  4
5392  7
5393  8
5394  8
5395  4
5396  7
5397  3
5398  4
5399  10
5400  8
5401  9
5402  12
5403  4
5404  8
5405  12
5406  5
5407  4
5408  8
5409  12
5410  5
5411  9
5412  6
5413  3
5414  4
5415  6
5416  7
5417  6
5418  9
5419  3
5420  9
5421  10
5422  10
5423  9
5424  8
5425  9
5426  5
5427  5
5428  3
5429  5
5430  6
5431  4
5432  4
5433  8
5434  6
5435  10
5436  6
5437  5
5438  9
5439  6
5440  7
5441  6
5442  9
5443  4
5444  9
5445  11
5446  9
5447  8
5448  12
5449  6
5450  8
5451  6
5452  9
5453  6
5454  7
5455  3
5456  3
5457  2
5458  7
5459  7
5460  8
5461  7
5462  6
5463  6
5464  6
5465  5
5466  7
5467  6
5468  11
5469  4
5470  4
5471  7
5472  5
5473  6
5474  10
5475  2
5476  9
5477  6
5478  9
5479  7
5480  10
5481  4
5482  6
5483  7
5484  9
5485  7
5486  8
5487  11
5488  11
5489  7
5490  9
5491  9
5492  5
5493  9
5494  11
5495  9
5496  7
5497  12
5498  7
5499  6
5500  2
5501  4
5502  11
5503  9
5504  8
5505  7
5506  6
5507  5
5508  8
5509  7
5510  7
5511  7
5512  8
5513  5
5514  8
5515  6
5516  12
5517  6
5518  10
5519  4
5520  6
5521  13
5522  9
5523  8
5524  3
5525  8
5526  7
5527  6
5528  5
5529  8
5530  3
5531  10
5532  7
5533  11
5534  4
5535  12
5536  10
5537  5
5538  5
5539  9
5540  4
5541  6
5542  7
5543  1
5544  6
5545  6
5546  2
5547  9
5548  6
5549  5
5550  13
5551  6
5552  9
5553  12
5554  4
5555  4
5556  6
5557  7
5558  9
5559  5
5560  7
5561  9
5562  8
5563  7
5564  2
5565  4
5566  6
5567  10
5568  4
5569  11
5570  11
5571  9
5572  7
5573  6
5574  9
5575  7
5576  8
5577  9
5578  3
5579  5
5580  7
5581  13
5582  4
5583  9
5584  6
5585  10
5586  10
5587  5
5588  7
5589  10
5590  7
5591  9
5592  7
5593  10
5594  10
5595  9
5596  7
5597  5
5598  10
5599  8
5600  7
5601  4
5602  5
5603  5
5604  8
5605  6
5606  5
5607  11
5608  8
5609  6
5610  4
5611  4
5612  8
5613  6
5614  10
5615  6
5616  8
5617  9
5618  8
5619  5
5620  5
5621  10
5622  7
5623  4
5624  6
5625  6
5626  12
5627  2
5628  12
5629  4
5630  7
5631  5
5632  6
5633  3
5634  11
5635  4
5636  13
5637  10
5638  6
5639  9
5640  9
5641  4
5642  6
5643  10
5644  8
5645  8
5646  8
5647  7
5648  8
5649  9
5650  5
5651  8
5652  9
5653  7
5654  6
5655  7
5656  6
5657  13
5658  11
5659  9
5660  3
5661  10
5662  5
5663  7
5664  2
5665  6
5666  7
5667  5
5668  8
5669  8
5670  5
5671  10
5672  9
5673  4
5674  7
5675  9
5676  9
5677  6
5678  8
5679  11
5680  11
5681  7
5682  7
5683  7
5684  5
5685  12
5686  5
5687  6
5688  5
5689  5
5690  4
5691  9
5692  9
5693  5
5694  6
5695  4
5696  4
5697  3
5698  4
5699  7
5700  7
5701  12
5702  8
5703  8
5704  8
5705  5
5706  9
5707  6
5708  9
5709  8
5710  11
5711  11
5712  7
5713  10
5714  13
5715  10
5716  10
5717  16
5718  13
5719  5
5720  9
5721  9
5722  4
5723  4
5724  11
5725  8
5726  7
5727  10
5728  11
5729  6
5730  9
5731  4
5732  4
5733  9
5734  13
5735  9
5736  10
5737  14
5738  13
5739  12
5740  13
5741  29
5742  33
5743  43
5744  60
5745  67
5746  92
5747  100
5748  113
5749  126
5750  127
5751  141
5752  99
5753  118
5754  71
5755  76
5756  48
5757  25
5758  20
5759  15
5760  15
5761  10
5762  7
5763  6
5764  17
5765  15
5766  18
5767  22
5768  20
5769  21
5770  23
5771  14
5772  21
5773  20
5774  8
5775  22
5776  20
5777  10
5778  15
5779  7
5780  6
5781  6
5782  10
5783  6
5784  9
5785  4
5786  5
5787  7
5788  2
5789  5
5790  11
5791  16
5792  3
5793  9
5794  8
5795  7
5796  2
5797  10
5798  9
5799  9
5800  6
5801  8
5802  6
5803  7
5804  7
5805  4
5806  9
5807  10
5808  3
5809  7
5810  6
5811  6
5812  4
5813  10
5814  4
5815  5
5816  5
5817  8
5818  5
5819  5
5820  9
5821  12
5822  6
5823  5
5824  10
5825  5
5826  7
5827  4
5828  8
5829  8
5830  8
5831  6
5832  5
5833  9
5834  6
5835  6
5836  6
5837  7
5838  8
5839  6
5840  7
5841  3
5842  8
5843  10
5844  12
5845  6
5846  8
5847  10
5848  8
5849  7
5850  7
5851  8
5852  9
5853  6
5854  8
5855  10
5856  7
5857  5
5858  6
5859  4
5860  9
5861  7
5862  5
5863  5
5864  7
5865  7
5866  12
5867  10
5868  8
5869  6
5870  14
5871  14
5872  13
5873  11
5874  16
5875  19
5876  21
5877  29
5878  49
5879  57
5880  72
5881  92
5882  96
5883  119
5884  137
5885  147
5886  170
5887  161
5888  123
5889  128
5890  85
5891  75
5892  47
5893  40
5894  24
5895  16
5896  12
5897  11
5898  6
5899  7
5900  7
5901  8
5902  6
5903  7
5904  4
5905  4
5906  12
5907  9
5908  3
5909  5
5910  2
5911  3
5912  6
5913  4
5914  8
5915  8
5916  4
5917  7
5918  4
5919  9
5920  6
5921  5
5922  8
5923  10
5924  12
5925  13
5926  15
5927  10
5928  13
5929  12
5930  12
5931  11
5932  8
5933  9
5934  15
5935  14
5936  8
5937  11
5938  7
5939  13
5940  13
5941  10
5942  14
5943  11
5944  10
5945  9
5946  10
5947  8
5948  6
5949  6
5950  5
5951  7
5952  15
5953  7
5954  4
5955  4
5956  7
5957  8
5958  4
5959  9
5960  8
5961  5
5962  15
5963  3
5964  4
5965  7
5966  10
5967  7
5968  5
5969  5
5970  10
5971  8
5972  5
5973  8
5974  4
5975  4
5976  6
5977  4
5978  8
5979  13
5980  8
5981  5
5982  8
5983  5
5984  6
5985  6
5986  8
5987  3
5988  5
5989  9
5990  7
5991  12
5992  12
5993  4
5994  11
5995  6
5996  7
5997  6
5998  8
5999  8
6000  4
6001  6
6002  5
6003  7
6004  4
6005  9
6006  7
6007  7
6008  9
6009  10
6010  6
6011  4
6012  7
6013  8
6014  5
6015  5
6016  10
6017  3
6018  5
6019  3
6020  9
6021  4
6022  8
6023  9
6024  6
6025  7
6026  8
6027  6
6028  7
6029  3
6030  4
6031  5
6032  7
6033  12
6034  8
6035  4
6036  2
6037  11
6038  7
6039  5
6040  10
6041  5
6042  7
6043  13
6044  3
6045  6
6046  10
6047  8
6048  6
6049  3
6050  7
6051  2
6052  8
6053  8
6054  4
6055  8
6056  8
6057  10
6058  5
6059  10
6060  6
6061  7
6062  13
6063  4
6064  8
6065  4
6066  6
6067  8
6068  10
6069  15
6070  7
6071  10
6072  8
6073  10
6074  3
6075  6
6076  7
6077  5
6078  7
6079  3
6080  11
6081  13
6082  9
6083  12
6084  4
6085  9
6086  10
6087  6
6088  6
6089  11
6090  5
6091  5
6092  3
6093  9
6094  11
6095  5
6096  10
6097  13
6098  6
6099  6
6100  10
6101  11
6102  12
6103  8
6104  9
6105  9
6106  9
6107  10
6108  7
6109  7
6110  5
6111  7
6112  9
6113  4
6114  4
6115  6
6116  7
6117  4
6118  13
6119  8
6120  6
6121  7
6122  10
6123  9
6124  8
6125  5
6126  12
6127  8
6128  8
6129  9
6130  8
6131  4
6132  4
6133  6
6134  10
6135  8
6136  4
6137  13
6138  4
6139  6
6140  4
6141  11
6142  8
6143  10
6144  6
6145  9
6146  6
6147  10
6148  10
6149  8
6150  6
6151  5
6152  6
6153  7
6154  9
6155  7
6156  9
6157  5
6158  5
6159  8
6160  9
6161  9
6162  8
6163  10
6164  6
6165  7
6166  6
6167  6
6168  2
6169  7
6170  5
6171  9
6172  5
6173  6
6174  1
6175  11
6176  6
6177  4
6178  5
6179  4
6180  4
6181  6
6182  8
6183  7
6184  7
6185  5
6186  9
6187  9
6188  8
6189  4
6190  5
6191  11
6192  12
6193  17
6194  10
6195  10
6196  3
6197  8
6198  11
6199  8
6200  7
6201  14
6202  5
6203  12
6204  5
6205  6
6206  8
6207  6
6208  9
6209  9
6210  7
6211  7
6212  15
6213  4
6214  3
6215  11
6216  8
6217  8
6218  17
6219  0
6220  3
6221  2
6222  4
6223  9
6224  7
6225  7
6226  6
6227  10
6228  8
6229  13
6230  12
6231  11
6232  7
6233  13
6234  3
6235  15
6236  8
6237  7
6238  4
6239  11
6240  10
6241  9
6242  4
6243  6
6244  6
6245  6
6246  11
6247  18
6248  5
6249  5
6250  5
6251  8
6252  9
6253  11
6254  7
6255  7
6256  9
6257  8
6258  3
6259  8
6260  7
6261  5
6262  7
6263  9
6264  8
6265  1
6266  5
6267  7
6268  6
6269  7
6270  6
6271  12
6272  6
6273  6
6274  7
6275  12
6276  7
6277  11
6278  6
6279  11
6280  10
6281  5
6282  6
6283  4
6284  6
6285  8
6286  7
6287  9
6288  9
6289  11
6290  4
6291  10
6292  4
6293  7
6294  6
6295  6
6296  4
6297  4
6298  10
6299  9
6300  3
6301  7
6302  3
6303  7
6304  3
6305  9
6306  2
6307  7
6308  15
6309  9
6310  6
6311  8
6312  11
6313  11
6314  4
6315  4
6316  6
6317  5
6318  6
6319  9
6320  10
6321  4
6322  9
6323  2
6324  4
6325  4
6326  9
6327  4
6328  3
6329  5
6330  7
6331  4
6332  7
6333  4
6334  2
6335  2
6336  7
6337  3
6338  5
6339  6
6340  3
6341  5
6342  4
6343  2
6344  6
6345  4
6346  10
6347  10
6348  3
6349  3
6350  4
6351  8
6352  1
6353  6
6354  10
6355  6
6356  3
6357  4
6358  8
6359  5
6360  9
6361  9
6362  6
6363  3
6364  4
6365  3
6366  6
6367  6
6368  8
6369  2
6370  6
6371  6
6372  4
6373  0
6374  3
6375  7
6376  4
6377  3
6378  2
6379  5
6380  1
6381  6
6382  4
6383  1
6384  9
6385  4
6386  3
6387  4
6388  7
6389  6
6390  6
6391  7
6392  6
6393  7
6394  3
6395  7
6396  5
6397  8
6398  6
6399  6
6400  6
6401  14
6402  8
6403  12
6404  18
6405  14
6406  13
6407  22
6408  16
6409  18
6410  11
6411  13
6412  11
6413  8
6414  1
6415  7
6416  4
6417  7
6418  9
6419  6
6420  4
6421  4
6422  3
6423  6
6424  6
6425  3
6426  4
6427  5
6428  4
6429  5
6430  6
6431  6
6432  5
6433  4
6434  4
6435  1
6436  5
6437  4
6438  5
6439  3
6440  3
6441  4
6442  4
6443  5
6444  2
6445  9
6446  5
6447  5
6448  6
6449  4
6450  2
6451  4
6452  7
6453  3
6454  5
6455  5
6456  2
6457  9
6458  4
6459  5
6460  7
6461  8
6462  8
6463  5
6464  8
6465  3
6466  11
6467  7
6468  5
6469  5
6470  6
6471  6
6472  3
6473  3
6474  4
6475  4
6476  5
6477  6
6478  7
6479  1
6480  3
6481  6
6482  3
6483  2
6484  4
6485  3
6486  2
6487  5
6488  4
6489  2
6490  5
6491  3
6492  3
6493  3
6494  3
6495  7
6496  2
6497  5
6498  10
6499  5
6500  3
6501  3
6502  3
6503  3
6504  6
6505  3
6506  6
6507  5
6508  4
6509  4
6510  5
6511  4
6512  3
6513  7
6514  9
6515  6
6516  6
6517  12
6518  7
6519  4
6520  6
6521  8
6522  5
6523  10
6524  6
6525  4
6526  3
6527  2
6528  5
6529  4
6530  2
6531  6
6532  1
6533  5
6534  5
6535  8
6536  7
6537  5
6538  9
6539  8
6540  5
6541  2
6542  3
6543  5
6544  7
6545  5
6546  5
6547  3
6548  4
6549  7
6550  3
6551  6
6552  5
6553  2
6554  4
6555  3
6556  8
6557  1
6558  4
6559  4
6560  1
6561  2
6562  5
6563  4
6564  1
6565  3
6566  6
6567  2
6568  5
6569  2
6570  4
6571  3
6572  6
6573  5
6574  3
6575  5
6576  3
6577  3
6578  2
6579  4
6580  5
6581  4
6582  4
6583  8
6584  2
6585  2
6586  5
6587  5
6588  1
6589  7
6590  3
6591  3
6592  4
6593  3
6594  7
6595  6
6596  7
6597  2
6598  5
6599  3
6600  5
6601  3
6602  6
6603  6
6604  5
6605  3
6606  5
6607  5
6608  3
6609  6
6610  2
6611  1
6612  5
6613  8
6614  3
6615  2
6616  6
6617  6
6618  6
6619  7
6620  3
6621  5
6622  2
6623  2
6624  1
6625  1
6626  4
6627  1
6628  3
6629  7
6630  4
6631  1
6632  2
6633  2
6634  3
6635  3
6636  5
6637  3
6638  4
6639  2
6640  2
6641  2
6642  1
6643  2
6644  0
6645  3
6646  2
6647  8
6648  2
6649  4
6650  2
6651  7
6652  2
6653  1
6654  3
6655  4
6656  7
6657  6
6658  6
6659  3
6660  2
6661  4
6662  3
6663  2
6664  4
6665  3
6666  2
6667  2
6668  4
6669  2
6670  1
6671  0
6672  3
6673  2
6674  2
6675  3
6676  1
6677  1
6678  2
6679  3
6680  5
6681  3
6682  2
6683  5
6684  7
6685  2
6686  5
6687  3
6688  4
6689  5
6690  3
6691  3
6692  5
6693  3
6694  2
6695  1
6696  2
6697  1
6698  4
6699  3
6700  3
6701  6
6702  5
6703  4
6704  3
6705  6
6706  5
6707  1
6708  5
6709  5
6710  3
6711  5
6712  1
6713  1
6714  3
6715  4
6716  2
6717  1
6718  3
6719  7
6720  4
6721  3
6722  3
6723  4
6724  3
6725  4
6726  3
6727  4
6728  7
6729  4
6730  1
6731  4
6732  3
6733  5
6734  3
6735  2
6736  0
6737  2
6738  5
6739  1
6740  7
6741  1
6742  2
6743  4
6744  2
6745  1
6746  3
6747  5
6748  1
6749  1
6750  2
6751  4
6752  3
6753  4
6754  3
6755  2
6756  3
6757  6
6758  2
6759  3
6760  1
6761  3
6762  3
6763  6
6764  3
6765  3
6766  1
6767  2
6768  5
6769  1
6770  3
6771  5
6772  4
6773  2
6774  3
6775  3
6776  3
6777  5
6778  5
6779  2
6780  5
6781  2
6782  4
6783  4
6784  3
6785  1
6786  3
6787  7
6788  0
6789  3
6790  3
6791  0
6792  5
6793  2
6794  2
6795  1
6796  4
6797  1
6798  3
6799  1
6800  1
6801  1
6802  3
6803  3
6804  3
6805  4
6806  2
6807  3
6808  1
6809  1
6810  2
6811  3
6812  0
6813  2
6814  4
6815  3
6816  2
6817  5
6818  7
6819  1
6820  2
6821  2
6822  4
6823  2
6824  2
6825  3
6826  1
6827  2
6828  2
6829  2
6830  2
6831  0
6832  3
6833  4
6834  1
6835  4
6836  0
6837  2
6838  5
6839  3
6840  2
6841  5
6842  2
6843  4
6844  1
6845  6
6846  8
6847  7
6848  15
6849  12
6850  14
6851  10
6852  11
6853  12
6854  13
6855  16
6856  3
6857  8
6858  8
6859  4
6860  5
6861  6
6862  2
6863  2
6864  5
6865  3
6866  1
6867  3
6868  1
6869  3
6870  1
6871  7
6872  3
6873  3
6874  1
6875  4
6876  1
6877  0
6878  2
6879  5
6880  3
6881  4
6882  4
6883  2
6884  3
6885  1
6886  1
6887  1
6888  4
6889  4
6890  1
6891  3
6892  5
6893  2
6894  3
6895  3
6896  1
6897  2
6898  1
6899  1
6900  4
6901  2
6902  5
6903  5
6904  2
6905  2
6906  3
6907  0
6908  0
6909  0
6910  1
6911  0
6912  0
6913  3
6914  0
6915  3
6916  3
6917  2
6918  0
6919  3
6920  1
6921  2
6922  1
6923  0
6924  2
6925  0
6926  5
6927  1
6928  1
6929  3
6930  2
6931  5
6932  2
6933  3
6934  2
6935  1
6936  2
6937  3
6938  0
6939  1
6940  3
6941  1
6942  2
6943  1
6944  1
6945  2
6946  2
6947  1
6948  3
6949  2
6950  3
6951  2
6952  3
6953  0
6954  2
6955  3
6956  3
6957  1
6958  1
6959  2
6960  2
6961  3
6962  1
6963  0
6964  1
6965  2
6966  0
6967  4
6968  0
6969  0
6970  1
6971  1
6972  2
6973  0
6974  0
6975  1
6976  0
6977  0
6978  1
6979  3
6980  0
6981  2
6982  1
6983  1
6984  1
6985  1
6986  2
6987  2
6988  4
6989  2
6990  1
6991  0
6992  2
6993  2
6994  2
6995  5
6996  0
6997  2
6998  2
6999  3
7000  1
7001  4
7002  4
7003  0
7004  1
7005  2
7006  2
7007  1
7008  3
7009  0
7010  5
7011  2
7012  1
7013  0
7014  3
7015  0
7016  0
7017  0
7018  0
7019  2
7020  2
7021  1
7022  2
7023  1
7024  0
7025  1
7026  3
7027  2
7028  0
7029  3
7030  0
7031  3
7032  3
7033  2
7034  5
7035  0
7036  0
7037  2
7038  4
7039  2
7040  2
7041  2
7042  2
7043  0
7044  5
7045  1
7046  1
7047  3
7048  2
7049  4
7050  2
7051  1
7052  2
7053  4
7054  2
7055  0
7056  1
7057  1
7058  1
7059  1
7060  1
7061  2
7062  1
7063  2
7064  0
7065  0
7066  0
7067  3
7068  0
7069  3
7070  2
7071  0
7072  2
7073  2
7074  1
7075  3
7076  0
7077  1
7078  0
7079  2
7080  0
7081  2
7082  2
7083  1
7084  2
7085  0
7086  1
7087  3
7088  1
7089  1
7090  1
7091  3
7092  2
7093  2
7094  3
7095  0
7096  2
7097  1
7098  3
7099  3
7100  1
7101  1
7102  2
7103  2
7104  0
7105  2
7106  1
7107  2
7108  0
7109  0
7110  1
7111  2
7112  2
7113  3
7114  4
7115  0
7116  2
7117  0
7118  1
7119  1
7120  2
7121  1
7122  0
7123  0
7124  1
7125  4
7126  2
7127  1
7128  0
7129  1
7130  2
7131  5
7132  1
7133  1
7134  0
7135  0
7136  1
7137  1
7138  1
7139  1
7140  1
7141  3
7142  0
7143  0
7144  1
7145  5
7146  0
7147  1
7148  2
7149  1
7150  2
7151  3
7152  2
7153  1
7154  1
7155  1
7156  1
7157  0
7158  0
7159  1
7160  1
7161  1
7162  2
7163  2
7164  0
7165  1
7166  1
7167  1
7168  0
7169  0
7170  9
7171  2
7172  2
7173  1
7174  1
7175  1
7176  4
7177  2
7178  0
7179  2
7180  3
7181  1
7182  6
7183  2
7184  3
7185  2
7186  1
7187  2
7188  3
7189  2
7190  4
7191  1
7192  0
7193  1
7194  4
7195  0
7196  1
7197  0
7198  2
7199  2
7200  1
7201  2
7202  0
7203  5
7204  0
7205  2
7206  2
7207  1
7208  0
7209  0
7210  1
7211  2
7212  2
7213  0
7214  1
7215  0
7216  1
7217  0
7218  3
7219  1
7220  2
7221  1
7222  2
7223  1
7224  1
7225  0
7226  2
7227  1
7228  1
7229  2
7230  0
7231  0
7232  1
7233  2
7234  4
7235  2
7236  0
7237  0
7238  2
7239  0
7240  1
7241  2
7242  0
7243  0
7244  1
7245  2
7246  3
7247  0
7248  0
7249  0
7250  0
7251  0
7252  2
7253  0
7254  3
7255  3
7256  3
7257  2
7258  3
7259  1
7260  1
7261  2
7262  1
7263  2
7264  2
7265  0
7266  2
7267  1
7268  1
7269  1
7270  0
7271  3
7272  0
7273  2
7274  3
7275  1
7276  5
7277  0
7278  1
7279  1
7280  4
7281  1
7282  3
7283  1
7284  2
7285  3
7286  1
7287  1
7288  2
7289  0
7290  0
7291  0
7292  2
7293  3
7294  0
7295  0
7296  0
7297  1
7298  1
7299  0
7300  5
7301  0
7302  1
7303  0
7304  1
7305  1
7306  0
7307  2
7308  1
7309  2
7310  1
7311  1
7312  1
7313  2
7314  1
7315  1
7316  2
7317  0
7318  1
7319  3
7320  1
7321  0
7322  0
7323  2
7324  2
7325  3
7326  0
7327  2
7328  1
7329  0
7330  1
7331  0
7332  0
7333  0
7334  2
7335  1
7336  0
7337  1
7338  2
7339  2
7340  3
7341  2
7342  2
7343  1
7344  2
7345  2
7346  0
7347  0
7348  2
7349  0
7350  3
7351  2
7352  2
7353  0
7354  0
7355  1
7356  1
7357  2
7358  1
7359  1
7360  1
7361  0
7362  0
7363  1
7364  2
7365  0
7366  2
7367  1
7368  1
7369  3
7370  4
7371  1
7372  1
7373  1
7374  0
7375  1
7376  1
7377  3
7378  1
7379  1
7380  1
7381  1
7382  4
7383  2
7384  2
7385  1
7386  3
7387  1
7388  2
7389  3
7390  1
7391  1
7392  2
7393  0
7394  2
7395  2
7396  3
7397  1
7398  3
7399  8
7400  9
7401  7
7402  16
7403  16
7404  26
7405  27
7406  36
7407  56
7408  66
7409  73
7410  91
7411  102
7412  132
7413  140
7414  133
7415  136
7416  134
7417  130
7418  122
7419  105
7420  76
7421  47
7422  49
7423  37
7424  29
7425  9
7426  6
7427  5
7428  5
7429  3
7430  2
7431  2
7432  2
7433  0
7434  2
7435  2
7436  0
7437  1
7438  2
7439  0
7440  1
7441  0
7442  1
7443  0
7444  2
7445  1
7446  1
7447  2
7448  1
7449  1
7450  1
7451  2
7452  0
7453  0
7454  2
7455  1
7456  3
7457  1
7458  0
7459  1
7460  0
7461  1
7462  1
7463  1
7464  1
7465  1
7466  1
7467  1
7468  2
7469  0
7470  1
7471  0
7472  1
7473  1
7474  3
7475  0
7476  1
7477  0
7478  0
7479  2
7480  0
7481  0
7482  1
7483  1
7484  1
7485  1
7486  0
7487  0
7488  1
7489  2
7490  0
7491  0
7492  1
7493  0
7494  1
7495  0
7496  0
7497  1
7498  0
7499  0
7500  1
7501  1
7502  0
7503  0
7504  0
7505  1
7506  1
7507  1
7508  1
7509  1
7510  0
7511  0
7512  2
7513  1
7514  1
7515  0
7516  1
7517  2
7518  2
7519  1
7520  0
7521  1
7522  1
7523  1
7524  0
7525  1
7526  1
7527  1
7528  0
7529  0
7530  1
7531  1
7532  1
7533  1
7534  1
7535  0
7536  0
7537  1
7538  1
7539  1
7540  0
7541  2
7542  1
7543  0
7544  2
7545  1
7546  1
7547  1
7548  1
7549  2
7550  1
7551  1
7552  1
7553  0
7554  0
7555  1
7556  1
7557  2
7558  0
7559  0
7560  0
7561  1
7562  1
7563  1
7564  1
7565  2
7566  1
7567  1
7568  0
7569  0
7570  1
7571  0
7572  2
7573  1
7574  1
7575  1
7576  1
7577  4
7578  2
7579  0
7580  1
7581  0
7582  0
7583  1
7584  3
7585  1
7586  1
7587  1
7588  1
7589  0
7590  0
7591  1
7592  2
7593  2
7594  0
7595  0
7596  2
7597  2
7598  0
7599  1
7600  1
7601  0
7602  0
7603  3
7604  0
7605  0
7606  0
7607  3
7608  0
7609  0
7610  0
7611  0
7612  0
7613  0
7614  5
7615  0
7616  0
7617  2
7618  0
7619  0
7620  0
7621  2
7622  0
7623  0
7624  1
7625  2
7626  0
7627  0
7628  1
7629  0
7630  1
7631  0
7632  2
7633  1
7634  0
7635  0
7636  0
7637  0
7638  1
7639  0
7640  0
7641  0
7642  0
7643  1
7644  0
7645  0
7646  2
7647  0
7648  0
7649  1
7650  1
7651  1
7652  2
7653  1
7654  1
7655  1
7656  0
7657  0
7658  3
7659  2
7660  2
7661  0
7662  2
7663  0
7664  1
7665  1
7666  6
7667  6
7668  4
7669  4
7670  1
7671  3
7672  5
7673  3
7674  10
7675  8
7676  10
7677  5
7678  4
7679  4
7680  9
7681  11
7682  9
7683  20
7684  24
7685  19
7686  26
7687  34
7688  39
7689  33
7690  28
7691  26
7692  25
7693  17
7694  18
7695  13
7696  4
7697  4
7698  4
7699  2
7700  0
7701  0
7702  0
7703  2
7704  1
7705  0
7706  0
7707  0
7708  0
7709  0
7710  0
7711  0
7712  0
7713  0
7714  0
7715  2
7716  0
7717  1
7718  0
7719  0
7720  0
7721  2
7722  1
7723  0
7724  1
7725  0
7726  3
7727  2
7728  0
7729  0
7730  2
7731  0
7732  1
7733  0
7734  0
7735  0
7736  1
7737  0
7738  0
7739  0
7740  0
7741  0
7742  0
7743  0
7744  2
7745  1
7746  3
7747  2
7748  1
7749  0
7750  0
7751  0
7752  1
7753  0
7754  2
7755  1
7756  0
7757  0
7758  1
7759  0
7760  1
7761  1
7762  0
7763  2
7764  1
7765  1
7766  0
7767  0
7768  0
7769  0
7770  0
7771  0
7772  0
7773  1
7774  1
7775  0
7776  0
7777  1
7778  1
7779  0
7780  0
7781  1
7782  0
7783  0
7784  0
7785  0
7786  0
7787  1
7788  2
7789  0
7790  0
7791  0
7792  1
7793  1
7794  0
7795  2
7796  1
7797  0
7798  1
7799  0
7800  0
7801  0
7802  0
7803  0
7804  0
7805  0
7806  0
7807  2
7808  1
7809  0
7810  1
7811  1
7812  1
7813  0
7814  1
7815  0
7816  0
7817  1
7818  0
7819  1
7820  1
7821  1
7822  0
7823  1
7824  0
7825  0
7826  2
7827  0
7828  0
7829  0
7830  0
7831  2
7832  0
7833  0
7834  0
7835  0
7836  0
7837  0
7838  0
7839  0
7840  0
7841  0
7842  1
7843  0
7844  1
7845  0
7846  0
7847  0
7848  0
7849  0
7850  0
7851  0
7852  0
7853  1
7854  0
7855  1
7856  1
7857  0
7858  2
7859  0
7860  0
7861  0
7862  1
7863  0
7864  1
7865  1
7866  0
7867  3
7868  2
7869  0
7870  0
7871  0
7872  0
7873  0
7874  0
7875  1
7876  1
7877  0
7878  1
7879  0
7880  0
7881  0
7882  1
7883  0
7884  0
7885  1
7886  0
7887  1
7888  1
7889  0
7890  0
7891  0
7892  1
7893  1
7894  0
7895  0
7896  0
7897  0
7898  0
7899  0
7900  0
7901  1
7902  0
7903  0
7904  0
7905  1
7906  0
7907  0
7908  0
7909  0
7910  0
7911  1
7912  0
7913  0
7914  0
7915  0
7916  0
7917  1
7918  0
7919  0
7920  1
7921  0
7922  0
7923  0
7924  0
7925  1
7926  0
7927  0
7928  1
7929  1
7930  1
7931  0
7932  2
7933  0
7934  1
7935  3
7936  2
7937  0
7938  1
7939  0
7940  1
7941  0
7942  4
7943  2
7944  3
7945  0
7946  1
7947  1
7948  0
7949  0
7950  0
7951  1
7952  0
7953  0
7954  0
7955  0
7956  0
7957  1
7958  1
7959  1
7960  0
7961  1
7962  1
7963  1
7964  1
7965  1
7966  1
7967  1
7968  1
7969  1
7970  1
7971  0
7972  0
7973  0
7974  0
7975  0
7976  0
7977  0
7978  0
7979  0
7980  0
7981  1
7982  0
7983  1
7984  0
7985  1
7986  0
7987  1
7988  0
7989  0
7990  1
7991  0
7992  0
7993  0
7994  2
7995  2
7996  0
7997  3
7998  2
7999  1
8000  1
8001  1
8002  1
8003  0
8004  0
8005  2
8006  0
8007  0
8008  1
8009  2
8010  1
8011  0
8012  0
8013  0
8014  0
8015  2
8016  1
8017  0
8018  0
8019  0
8020  0
8021  1
8022  1
8023  0
8024  2
8025  2
8026  0
8027  0
8028  2
8029  2
8030  2
8031  6
8032  1
8033  3
8034  6
8035  4
8036  2
8037  5
8038  5
8039  8
8040  5
8041  3
8042  5
8043  6
8044  6
8045  4
8046  1
8047  2
8048  2
8049  4
8050  1
8051  2
8052  2
8053  2
8054  0
8055  3
8056  0
8057  1
8058  1
8059  0
8060  1
8061  0
8062  0
8063  1
8064  0
8065  0
8066  1
8067  0
8068  0
8069  0
8070  1
8071  0
8072  0
8073  0
8074  0
8075  1
8076  1
8077  1
8078  0
8079  0
8080  0
8081  0
8082  1
8083  1
8084  2
8085  0
8086  1
8087  1
8088  0
8089  0
8090  0
8091  0
8092  2
8093  0
8094  1
8095  0
8096  0
8097  2
8098  0
8099  1
8100  2
8101  1
8102  1
8103  2
8104  0
8105  0
8106  0
8107  1
8108  1
8109  1
8110  0
8111  0
8112  0
8113  0
8114  0
8115  0
8116  0
8117  0
8118  0
8119  0
8120  0
8121  0
8122  0
8123  0
8124  0
8125  0
8126  1
8127  0
8128  0
8129  0
8130  0
8131  1
8132  0
8133  1
8134  0
8135  0
8136  3
8137  0
8138  0
8139  0
8140  1
8141  0
8142  0
8143  1
8144  0
8145  1
8146  2
8147  0
8148  0
8149  0
8150  0
8151  0
8152  1
8153  0
8154  0
8155  1
8156  2
8157  0
8158  0
8159  1
8160  0
8161  0
8162  1
8163  2
8164  0
8165  0
8166  0
8167  0
8168  0
8169  0
8170  0
8171  0
8172  1
8173  1
8174  1
8175  0
8176  0
8177  0
8178  2
8179  0
8180  0
8181  0
8182  0
8183  0
8184  0
8185  0
8186  0
8187  0
8188  1
8189  0
8190  0
8191  0
