0  19
1  1
2  0
3  0
4  0
5  0
6  0
7  1
8  0
9  0
10  0
11  0
12  0
13  0
14  0
15  0
16  1
17  0
18  1
19  0
20  0
21  0
22  0
23  0
24  0
25  0
26  0
27  0
28  0
29  0
30  0
31  0
32  0
33  0
34  0
35  0
36  0
37  1
38  0
39  0
40  0
41  0
42  0
43  0
44  0
45  0
46  0
47  0
48  0
49  0
50  0
51  0
52  0
53  0
54  1
55  0
56  0
57  0
58  0
59  0
60  0
61  0
62  0
63  0
64  0
65  0
66  0
67  0
68  0
69  0
70  0
71  0
72  0
73  0
74  0
75  0
76  0
77  0
78  0
79  0
80  0
81  0
82  0
83  0
84  0
85  0
86  0
87  0
88  0
89  0
90  1
91  0
92  0
93  0
94  0
95  0
96  0
97  0
98  0
99  0
100  0
101  0
102  0
103  0
104  0
105  0
106  0
107  0
108  0
109  0
110  0
111  0
112  0
113  0
114  0
115  0
116  0
117  0
118  0
119  0
120  0
121  0
122  0
123  0
124  0
125  0
126  0
127  0
128  0
129  0
130  0
131  0
132  0
133  0
134  0
135  1
136  0
137  0
138  0
139  0
140  0
141  0
142  0
143  0
144  0
145  0
146  0
147  0
148  0
149  0
150  0
151  0
152  0
153  0
154  0
155  0
156  0
157  0
158  1
159  0
160  0
161  0
162  0
163  0
164  0
165  0
166  0
167  0
168  0
169  0
170  0
171  0
172  0
173  1
174  0
175  0
176  0
177  0
178  0
179  0
180  0
181  0
182  1
183  1
184  0
185  0
186  0
187  0
188  0
189  0
190  1
191  0
192  0
193  0
194  0
195  0
196  0
197  0
198  0
199  1
200  0
201  0
202  0
203  0
204  0
205  1
206  0
207  0
208  0
209  0
210  0
211  0
212  0
213  0
214  0
215  0
216  0
217  0
218  0
219  0
220  0
221  2
222  0
223  0
224  0
225  0
226  1
227  0
228  0
229  1
230  0
231  0
232  0
233  0
234  0
235  0
236  0
237  0
238  0
239  0
240  0
241  0
242  0
243  0
244  0
245  1
246  0
247  1
248  2
249  0
250  0
251  2
252  0
253  3
254  2
255  7
256  5
257  6
258  12
259  14
260  13
261  9
262  24
263  22
264  16
265  31
266  34
267  37
268  49
269  46
270  45
271  59
272  63
273  63
274  82
275  83
276  85
277  70
278  77
279  93
280  95
281  106
282  127
283  112
284  125
285  138
286  108
287  121
288  137
289  121
290  149
291  141
292  140
293  128
294  130
295  143
296  155
297  143
298  164
299  152
300  159
301  178
302  181
303  172
304  188
305  170
306  175
307  181
308  205
309  179
310  175
311  220
312  200
313  188
314  214
315  208
316  205
317  180
318  206
319  201
320  215
321  204
322  234
323  209
324  216
325  201
326  249
327  203
328  243
329  226
330  202
331  247
332  233
333  247
334  263
335  211
336  229
337  233
338  220
339  239
340  237
341  228
342  241
343  220
344  248
345  229
346  257
347  242
348  254
349  236
350  232
351  238
352  255
353  257
354  261
355  245
356  257
357  242
358  252
359  269
360  253
361  265
362  230
363  255
364  249
365  277
366  248
367  230
368  269
369  246
370  236
371  249
372  275
373  239
374  263
375  320
376  296
377  267
378  268
379  275
380  272
381  287
382  295
383  268
384  257
385  268
386  271
387  254
388  251
389  293
390  251
391  264
392  308
393  273
394  268
395  250
396  274
397  285
398  302
399  280
400  286
401  312
402  290
403  293
404  282
405  273
406  288
407  296
408  303
409  315
410  281
411  285
412  287
413  292
414  304
415  307
416  293
417  264
418  284
419  311
420  346
421  292
422  316
423  295
424  322
425  301
426  327
427  321
428  326
429  293
430  345
431  361
432  357
433  419
434  469
435  576
436  701
437  874
438  1019
439  1134
440  956
441  829
442  689
443  555
444  394
445  376
446  331
447  320
448  362
449  330
450  311
451  319
452  294
453  303
454  339
455  306
456  341
457  375
458  374
459  328
460  344
461  337
462  316
463  351
464  322
465  341
466  345
467  325
468  343
469  348
470  345
471  364
472  314
473  369
474  338
475  333
476  355
477  366
478  350
479  382
480  363
481  354
482  426
483  347
484  389
485  406
486  420
487  426
488  447
489  393
490  405
491  387
492  381
493  413
494  442
495  377
496  442
497  460
498  436
499  434
500  427
501  471
502  460
503  454
504  503
505  451
506  438
507  428
508  452
509  463
510  470
511  473
512  458
513  462
514  467
515  449
516  492
517  449
518  518
519  509
520  484
521  481
522  504
523  452
524  478
525  525
526  466
527  516
528  507
529  506
530  484
531  515
532  551
533  505
534  514
535  583
536  578
537  577
538  587
539  593
540  559
541  574
542  603
543  563
544  586
545  557
546  618
547  640
548  652
549  630
550  663
551  751
552  787
553  846
554  903
555  983
556  986
557  970
558  915
559  818
560  712
561  718
562  634
563  622
564  631
565  658
566  637
567  644
568  636
569  682
570  682
571  701
572  706
573  745
574  655
575  678
576  723
577  702
578  723
579  713
580  765
581  774
582  754
583  811
584  876
585  1001
586  1026
587  1073
588  1013
589  1050
590  959
591  880
592  928
593  918
594  1087
595  1368
596  1929
597  2763
598  4368
599  6149
600  8060
601  9173
602  9161
603  8107
604  6301
605  4562
606  3154
607  2162
608  1749
609  1744
610  2200
611  2649
612  3096
613  3279
614  2933
615  2331
616  1783
617  1223
618  1000
619  848
620  785
621  761
622  747
623  753
624  741
625  799
626  871
627  1054
628  1373
629  1935
630  2817
631  3984
632  4882
633  5438
634  4927
635  4180
636  2952
637  1817
638  1136
639  832
640  693
641  539
642  583
643  612
644  578
645  500
646  523
647  568
648  568
649  551
650  544
651  539
652  602
653  542
654  620
655  581
656  600
657  552
658  600
659  553
660  572
661  576
662  520
663  564
664  581
665  566
666  592
667  625
668  665
669  660
670  679
671  718
672  653
673  617
674  635
675  551
676  574
677  590
678  571
679  599
680  575
681  607
682  578
683  619
684  638
685  679
686  671
687  746
688  802
689  854
690  895
691  897
692  910
693  919
694  1092
695  1239
696  1473
697  1633
698  1760
699  2017
700  2171
701  2290
702  2278
703  2015
704  1711
705  1347
706  1141
707  1153
708  1302
709  1404
710  1454
711  1349
712  1111
713  900
714  898
715  831
716  944
717  1022
718  1155
719  1206
720  1117
721  979
722  838
723  747
724  668
725  572
726  477
727  441
728  382
729  408
730  342
731  337
732  325
733  329
734  303
735  348
736  315
737  362
738  326
739  351
740  344
741  322
742  299
743  330
744  355
745  362
746  322
747  317
748  320
749  352
750  383
751  348
752  399
753  418
754  388
755  388
756  359
757  364
758  350
759  348
760  337
761  365
762  318
763  336
764  339
765  370
766  356
767  340
768  340
769  365
770  332
771  364
772  321
773  364
774  357
775  326
776  319
777  374
778  324
779  341
780  332
781  377
782  316
783  344
784  340
785  345
786  334
787  371
788  356
789  363
790  353
791  349
792  331
793  313
794  351
795  325
796  337
797  305
798  367
799  350
800  336
801  355
802  346
803  314
804  356
805  375
806  386
807  392
808  407
809  364
810  360
811  348
812  348
813  322
814  341
815  336
816  339
817  350
818  342
819  345
820  357
821  346
822  314
823  337
824  310
825  334
826  341
827  360
828  360
829  343
830  297
831  324
832  321
833  323
834  349
835  360
836  359
837  337
838  331
839  333
840  319
841  350
842  351
843  321
844  323
845  339
846  318
847  324
848  360
849  345
850  324
851  337
852  347
853  317
854  383
855  366
856  350
857  377
858  346
859  367
860  368
861  386
862  361
863  320
864  346
865  302
866  392
867  402
868  463
869  595
870  814
871  1117
872  1319
873  1446
874  1314
875  1080
876  852
877  562
878  452
879  402
880  350
881  346
882  325
883  326
884  326
885  345
886  327
887  322
888  331
889  320
890  295
891  338
892  334
893  297
894  339
895  322
896  347
897  369
898  305
899  329
900  319
901  322
902  333
903  306
904  326
905  320
906  332
907  326
908  329
909  325
910  327
911  323
912  342
913  357
914  345
915  340
916  322
917  332
918  326
919  330
920  295
921  341
922  351
923  305
924  345
925  349
926  329
927  288
928  358
929  322
930  299
931  330
932  328
933  361
934  343
935  319
936  311
937  336
938  307
939  337
940  314
941  325
942  314
943  311
944  341
945  316
946  293
947  302
948  311
949  322
950  324
951  306
952  299
953  289
954  308
955  340
956  292
957  309
958  301
959  345
960  293
961  320
962  328
963  323
964  320
965  358
966  308
967  305
968  319
969  386
970  400
971  399
972  491
973  635
974  750
975  888
976  915
977  824
978  666
979  557
980  435
981  349
982  327
983  331
984  300
985  270
986  336
987  315
988  282
989  293
990  306
991  286
992  315
993  289
994  298
995  296
996  295
997  315
998  299
999  302
1000  326
1001  291
1002  299
1003  312
1004  316
1005  307
1006  313
1007  290
1008  290
1009  307
1010  265
1011  301
1012  282
1013  291
1014  293
1015  307
1016  306
1017  285
1018  296
1019  266
1020  306
1021  302
1022  322
1023  284
1024  321
1025  309
1026  293
1027  337
1028  313
1029  308
1030  319
1031  342
1032  309
1033  313
1034  333
1035  288
1036  298
1037  302
1038  269
1039  279
1040  300
1041  294
1042  268
1043  325
1044  257
1045  247
1046  316
1047  307
1048  309
1049  286
1050  313
1051  305
1052  331
1053  327
1054  299
1055  318
1056  288
1057  321
1058  302
1059  281
1060  289
1061  290
1062  298
1063  283
1064  292
1065  299
1066  295
1067  272
1068  284
1069  303
1070  308
1071  299
1072  308
1073  327
1074  316
1075  352
1076  345
1077  369
1078  337
1079  351
1080  332
1081  321
1082  318
1083  318
1084  380
1085  471
1086  592
1087  1012
1088  1758
1089  2845
1090  4350
1091  6084
1092  7396
1093  7505
1094  6429
1095  4820
1096  2860
1097  1501
1098  762
1099  415
1100  272
1101  278
1102  228
1103  250
1104  220
1105  245
1106  253
1107  239
1108  228
1109  202
1110  216
1111  258
1112  247
1113  212
1114  239
1115  221
1116  251
1117  246
1118  227
1119  224
1120  232
1121  229
1122  237
1123  237
1124  234
1125  218
1126  205
1127  265
1128  248
1129  206
1130  222
1131  220
1132  218
1133  227
1134  247
1135  212
1136  241
1137  261
1138  269
1139  266
1140  285
1141  289
1142  264
1143  269
1144  260
1145  229
1146  219
1147  205
1148  218
1149  206
1150  213
1151  216
1152  189
1153  195
1154  226
1155  202
1156  198
1157  211
1158  211
1159  229
1160  222
1161  234
1162  224
1163  209
1164  193
1165  224
1166  215
1167  218
1168  221
1169  208
1170  204
1171  228
1172  181
1173  249
1174  256
1175  266
1176  299
1177  333
1178  322
1179  333
1180  340
1181  291
1182  239
1183  215
1184  220
1185  219
1186  238
1187  210
1188  249
1189  278
1190  358
1191  448
1192  551
1193  702
1194  841
1195  900
1196  835
1197  587
1198  428
1199  319
1200  268
1201  230
1202  173
1203  168
1204  205
1205  203
1206  187
1207  222
1208  217
1209  183
1210  197
1211  186
1212  205
1213  175
1214  173
1215  169
1216  191
1217  206
1218  174
1219  190
1220  179
1221  183
1222  198
1223  184
1224  209
1225  192
1226  168
1227  182
1228  194
1229  200
1230  194
1231  175
1232  196
1233  182
1234  200
1235  211
1236  180
1237  198
1238  168
1239  183
1240  182
1241  191
1242  179
1243  184
1244  168
1245  183
1246  167
1247  191
1248  174
1249  192
1250  197
1251  173
1252  188
1253  160
1254  205
1255  158
1256  187
1257  161
1258  186
1259  170
1260  191
1261  167
1262  174
1263  197
1264  176
1265  167
1266  206
1267  180
1268  161
1269  204
1270  157
1271  160
1272  193
1273  163
1274  154
1275  198
1276  191
1277  190
1278  197
1279  201
1280  171
1281  164
1282  172
1283  169
1284  163
1285  180
1286  188
1287  169
1288  202
1289  173
1290  184
1291  169
1292  156
1293  169
1294  187
1295  182
1296  165
1297  191
1298  163
1299  149
1300  166
1301  164
1302  186
1303  200
1304  178
1305  215
1306  187
1307  213
1308  187
1309  209
1310  188
1311  190
1312  177
1313  185
1314  176
1315  147
1316  179
1317  164
1318  180
1319  151
1320  189
1321  168
1322  172
1323  174
1324  174
1325  166
1326  160
1327  166
1328  177
1329  155
1330  162
1331  166
1332  162
1333  157
1334  169
1335  184
1336  175
1337  167
1338  165
1339  168
1340  166
1341  170
1342  144
1343  150
1344  166
1345  169
1346  180
1347  141
1348  179
1349  139
1350  162
1351  172
1352  183
1353  165
1354  145
1355  174
1356  159
1357  158
1358  149
1359  139
1360  145
1361  150
1362  150
1363  176
1364  169
1365  145
1366  182
1367  174
1368  197
1369  178
1370  164
1371  170
1372  166
1373  134
1374  155
1375  150
1376  162
1377  150
1378  165
1379  172
1380  168
1381  146
1382  171
1383  159
1384  153
1385  145
1386  164
1387  168
1388  162
1389  137
1390  170
1391  154
1392  132
1393  153
1394  146
1395  152
1396  154
1397  139
1398  135
1399  164
1400  145
1401  134
1402  128
1403  136
1404  142
1405  153
1406  161
1407  157
1408  155
1409  170
1410  155
1411  131
1412  137
1413  154
1414  136
1415  160
1416  126
1417  155
1418  160
1419  125
1420  161
1421  158
1422  131
1423  152
1424  153
1425  142
1426  136
1427  162
1428  147
1429  152
1430  141
1431  149
1432  157
1433  126
1434  142
1435  116
1436  137
1437  160
1438  127
1439  133
1440  136
1441  131
1442  144
1443  146
1444  138
1445  139
1446  134
1447  145
1448  110
1449  146
1450  121
1451  129
1452  138
1453  144
1454  140
1455  148
1456  121
1457  120
1458  113
1459  154
1460  127
1461  131
1462  138
1463  149
1464  143
1465  160
1466  196
1467  230
1468  296
1469  317
1470  332
1471  293
1472  271
1473  188
1474  179
1475  156
1476  124
1477  144
1478  111
1479  111
1480  123
1481  126
1482  124
1483  123
1484  137
1485  116
1486  134
1487  108
1488  123
1489  121
1490  137
1491  104
1492  130
1493  149
1494  105
1495  128
1496  129
1497  112
1498  115
1499  116
1500  135
1501  132
1502  126
1503  109
1504  114
1505  127
1506  125
1507  126
1508  111
1509  114
1510  131
1511  97
1512  105
1513  118
1514  129
1515  113
1516  116
1517  120
1518  106
1519  139
1520  119
1521  121
1522  119
1523  129
1524  117
1525  118
1526  133
1527  123
1528  113
1529  123
1530  129
1531  108
1532  141
1533  115
1534  129
1535  134
1536  141
1537  131
1538  121
1539  117
1540  128
1541  123
1542  119
1543  119
1544  118
1545  125
1546  125
1547  96
1548  136
1549  134
1550  107
1551  99
1552  103
1553  121
1554  122
1555  122
1556  119
1557  119
1558  124
1559  110
1560  127
1561  120
1562  107
1563  104
1564  122
1565  112
1566  115
1567  107
1568  110
1569  102
1570  124
1571  112
1572  102
1573  122
1574  111
1575  124
1576  120
1577  120
1578  122
1579  112
1580  113
1581  100
1582  115
1583  115
1584  124
1585  116
1586  115
1587  107
1588  140
1589  103
1590  110
1591  112
1592  109
1593  113
1594  88
1595  102
1596  100
1597  105
1598  126
1599  105
1600  119
1601  110
1602  108
1603  122
1604  136
1605  92
1606  108
1607  114
1608  107
1609  133
1610  108
1611  118
1612  105
1613  97
1614  95
1615  97
1616  107
1617  115
1618  119
1619  97
1620  96
1621  106
1622  109
1623  106
1624  96
1625  111
1626  111
1627  114
1628  116
1629  117
1630  106
1631  90
1632  98
1633  103
1634  92
1635  110
1636  119
1637  106
1638  103
1639  107
1640  91
1641  108
1642  123
1643  117
1644  103
1645  99
1646  106
1647  95
1648  104
1649  95
1650  104
1651  116
1652  124
1653  138
1654  115
1655  115
1656  112
1657  88
1658  110
1659  117
1660  109
1661  109
1662  128
1663  121
1664  126
1665  127
1666  93
1667  110
1668  92
1669  91
1670  92
1671  89
1672  91
1673  95
1674  109
1675  96
1676  114
1677  86
1678  104
1679  94
1680  89
1681  81
1682  102
1683  110
1684  108
1685  90
1686  92
1687  99
1688  93
1689  87
1690  100
1691  111
1692  105
1693  90
1694  91
1695  97
1696  86
1697  79
1698  109
1699  82
1700  88
1701  82
1702  81
1703  116
1704  99
1705  89
1706  79
1707  91
1708  89
1709  102
1710  94
1711  91
1712  93
1713  127
1714  117
1715  86
1716  110
1717  77
1718  87
1719  107
1720  98
1721  110
1722  75
1723  113
1724  98
1725  87
1726  79
1727  86
1728  74
1729  110
1730  86
1731  89
1732  80
1733  88
1734  82
1735  96
1736  100
1737  87
1738  93
1739  91
1740  110
1741  74
1742  77
1743  106
1744  88
1745  97
1746  94
1747  89
1748  94
1749  107
1750  89
1751  85
1752  104
1753  90
1754  89
1755  85
1756  90
1757  67
1758  84
1759  90
1760  91
1761  67
1762  78
1763  73
1764  73
1765  65
1766  71
1767  72
1768  80
1769  83
1770  103
1771  78
1772  80
1773  85
1774  112
1775  96
1776  78
1777  75
1778  78
1779  70
1780  99
1781  78
1782  105
1783  83
1784  88
1785  83
1786  95
1787  68
1788  94
1789  87
1790  96
1791  83
1792  73
1793  103
1794  83
1795  84
1796  96
1797  77
1798  84
1799  95
1800  106
1801  82
1802  75
1803  76
1804  89
1805  78
1806  72
1807  82
1808  83
1809  92
1810  82
1811  91
1812  84
1813  84
1814  79
1815  86
1816  94
1817  86
1818  83
1819  105
1820  73
1821  79
1822  89
1823  79
1824  83
1825  85
1826  77
1827  80
1828  87
1829  76
1830  69
1831  98
1832  71
1833  86
1834  81
1835  80
1836  84
1837  90
1838  68
1839  90
1840  74
1841  83
1842  83
1843  80
1844  81
1845  89
1846  68
1847  81
1848  62
1849  79
1850  75
1851  74
1852  78
1853  89
1854  88
1855  79
1856  101
1857  75
1858  91
1859  71
1860  74
1861  87
1862  84
1863  86
1864  75
1865  70
1866  62
1867  86
1868  79
1869  67
1870  88
1871  78
1872  74
1873  84
1874  85
1875  81
1876  88
1877  60
1878  88
1879  82
1880  86
1881  89
1882  64
1883  72
1884  73
1885  86
1886  83
1887  79
1888  69
1889  76
1890  83
1891  104
1892  88
1893  78
1894  82
1895  71
1896  78
1897  82
1898  59
1899  61
1900  79
1901  89
1902  79
1903  59
1904  75
1905  81
1906  63
1907  67
1908  53
1909  84
1910  64
1911  57
1912  69
1913  58
1914  74
1915  86
1916  76
1917  70
1918  64
1919  67
1920  63
1921  71
1922  90
1923  55
1924  64
1925  76
1926  86
1927  69
1928  69
1929  77
1930  66
1931  71
1932  70
1933  71
1934  70
1935  87
1936  80
1937  77
1938  68
1939  63
1940  77
1941  72
1942  89
1943  71
1944  78
1945  60
1946  66
1947  76
1948  67
1949  72
1950  79
1951  84
1952  84
1953  98
1954  90
1955  85
1956  96
1957  107
1958  97
1959  98
1960  70
1961  67
1962  81
1963  69
1964  70
1965  64
1966  62
1967  82
1968  64
1969  59
1970  75
1971  74
1972  68
1973  71
1974  66
1975  63
1976  65
1977  61
1978  61
1979  74
1980  73
1981  71
1982  52
1983  51
1984  55
1985  69
1986  70
1987  78
1988  67
1989  71
1990  62
1991  69
1992  61
1993  71
1994  66
1995  77
1996  62
1997  82
1998  63
1999  60
2000  69
2001  64
2002  59
2003  54
2004  59
2005  56
2006  66
2007  63
2008  57
2009  64
2010  61
2011  73
2012  55
2013  65
2014  65
2015  61
2016  72
2017  70
2018  53
2019  74
2020  65
2021  70
2022  67
2023  75
2024  64
2025  78
2026  57
2027  49
2028  66
2029  63
2030  61
2031  52
2032  74
2033  60
2034  79
2035  65
2036  56
2037  72
2038  73
2039  60
2040  62
2041  65
2042  71
2043  73
2044  54
2045  75
2046  67
2047  66
2048  70
2049  61
2050  66
2051  62
2052  56
2053  55
2054  62
2055  52
2056  63
2057  61
2058  68
2059  72
2060  63
2061  55
2062  54
2063  66
2064  55
2065  58
2066  60
2067  66
2068  56
2069  72
2070  61
2071  66
2072  69
2073  66
2074  70
2075  70
2076  74
2077  84
2078  64
2079  42
2080  70
2081  54
2082  71
2083  56
2084  50
2085  66
2086  65
2087  73
2088  57
2089  45
2090  69
2091  62
2092  50
2093  63
2094  58
2095  75
2096  59
2097  47
2098  56
2099  62
2100  67
2101  53
2102  63
2103  84
2104  61
2105  78
2106  55
2107  71
2108  55
2109  62
2110  59
2111  58
2112  61
2113  52
2114  59
2115  52
2116  65
2117  69
2118  66
2119  57
2120  59
2121  56
2122  55
2123  58
2124  55
2125  56
2126  54
2127  64
2128  54
2129  55
2130  67
2131  42
2132  62
2133  62
2134  64
2135  55
2136  56
2137  69
2138  49
2139  60
2140  66
2141  47
2142  52
2143  75
2144  72
2145  60
2146  57
2147  63
2148  58
2149  45
2150  57
2151  58
2152  59
2153  56
2154  56
2155  53
2156  55
2157  46
2158  52
2159  62
2160  61
2161  63
2162  45
2163  62
2164  66
2165  61
2166  50
2167  58
2168  60
2169  60
2170  47
2171  72
2172  58
2173  48
2174  65
2175  47
2176  46
2177  61
2178  54
2179  56
2180  60
2181  49
2182  61
2183  49
2184  67
2185  52
2186  67
2187  54
2188  68
2189  60
2190  48
2191  58
2192  48
2193  51
2194  60
2195  58
2196  66
2197  56
2198  53
2199  66
2200  53
2201  59
2202  74
2203  46
2204  49
2205  66
2206  57
2207  60
2208  62
2209  59
2210  55
2211  63
2212  48
2213  44
2214  58
2215  45
2216  65
2217  59
2218  50
2219  56
2220  48
2221  43
2222  42
2223  61
2224  55
2225  50
2226  56
2227  66
2228  69
2229  48
2230  48
2231  53
2232  66
2233  53
2234  55
2235  61
2236  77
2237  40
2238  58
2239  59
2240  64
2241  50
2242  49
2243  50
2244  64
2245  54
2246  49
2247  59
2248  69
2249  49
2250  60
2251  54
2252  47
2253  52
2254  64
2255  47
2256  61
2257  62
2258  56
2259  40
2260  45
2261  69
2262  55
2263  51
2264  54
2265  45
2266  49
2267  50
2268  57
2269  44
2270  39
2271  57
2272  43
2273  45
2274  41
2275  44
2276  57
2277  46
2278  55
2279  55
2280  55
2281  34
2282  46
2283  43
2284  47
2285  59
2286  49
2287  48
2288  42
2289  57
2290  36
2291  55
2292  43
2293  76
2294  34
2295  46
2296  45
2297  61
2298  63
2299  42
2300  42
2301  61
2302  59
2303  56
2304  56
2305  48
2306  49
2307  54
2308  48
2309  57
2310  40
2311  57
2312  46
2313  54
2314  56
2315  41
2316  53
2317  41
2318  52
2319  46
2320  50
2321  60
2322  50
2323  46
2324  50
2325  68
2326  55
2327  43
2328  57
2329  59
2330  52
2331  34
2332  58
2333  51
2334  58
2335  40
2336  54
2337  44
2338  44
2339  41
2340  31
2341  53
2342  41
2343  34
2344  59
2345  48
2346  42
2347  56
2348  50
2349  43
2350  61
2351  41
2352  45
2353  51
2354  51
2355  56
2356  53
2357  55
2358  47
2359  46
2360  49
2361  45
2362  49
2363  42
2364  52
2365  55
2366  58
2367  54
2368  42
2369  55
2370  45
2371  51
2372  51
2373  39
2374  35
2375  49
2376  45
2377  57
2378  39
2379  44
2380  42
2381  55
2382  29
2383  58
2384  57
2385  35
2386  38
2387  41
2388  42
2389  46
2390  41
2391  48
2392  47
2393  52
2394  44
2395  50
2396  32
2397  45
2398  39
2399  39
2400  37
2401  48
2402  39
2403  44
2404  47
2405  46
2406  58
2407  45
2408  36
2409  48
2410  38
2411  53
2412  36
2413  43
2414  42
2415  43
2416  41
2417  41
2418  56
2419  49
2420  44
2421  38
2422  35
2423  50
2424  50
2425  55
2426  57
2427  56
2428  53
2429  52
2430  57
2431  51
2432  36
2433  35
2434  40
2435  43
2436  46
2437  33
2438  49
2439  41
2440  41
2441  54
2442  37
2443  50
2444  41
2445  31
2446  41
2447  41
2448  46
2449  48
2450  38
2451  43
2452  36
2453  43
2454  55
2455  53
2456  45
2457  56
2458  51
2459  43
2460  41
2461  36
2462  49
2463  48
2464  42
2465  41
2466  53
2467  50
2468  60
2469  58
2470  48
2471  28
2472  40
2473  45
2474  41
2475  48
2476  34
2477  45
2478  57
2479  42
2480  37
2481  40
2482  46
2483  38
2484  45
2485  46
2486  46
2487  46
2488  42
2489  33
2490  46
2491  50
2492  48
2493  44
2494  37
2495  32
2496  41
2497  45
2498  41
2499  29
2500  51
2501  33
2502  37
2503  43
2504  31
2505  40
2506  49
2507  47
2508  49
2509  50
2510  42
2511  53
2512  41
2513  49
2514  53
2515  27
2516  54
2517  43
2518  49
2519  48
2520  33
2521  47
2522  27
2523  43
2524  36
2525  47
2526  34
2527  35
2528  41
2529  43
2530  47
2531  54
2532  48
2533  44
2534  51
2535  48
2536  36
2537  38
2538  43
2539  37
2540  47
2541  41
2542  34
2543  41
2544  42
2545  43
2546  44
2547  34
2548  36
2549  50
2550  38
2551  56
2552  37
2553  42
2554  40
2555  41
2556  43
2557  50
2558  44
2559  37
2560  56
2561  39
2562  55
2563  39
2564  59
2565  34
2566  37
2567  37
2568  33
2569  33
2570  53
2571  43
2572  46
2573  46
2574  44
2575  47
2576  41
2577  41
2578  50
2579  41
2580  39
2581  44
2582  49
2583  32
2584  36
2585  40
2586  40
2587  40
2588  23
2589  41
2590  55
2591  56
2592  36
2593  38
2594  39
2595  38
2596  54
2597  45
2598  39
2599  37
2600  36
2601  33
2602  42
2603  28
2604  40
2605  39
2606  42
2607  35
2608  29
2609  42
2610  38
2611  44
2612  54
2613  26
2614  36
2615  51
2616  47
2617  47
2618  25
2619  43
2620  36
2621  41
2622  33
2623  41
2624  56
2625  35
2626  38
2627  46
2628  42
2629  38
2630  56
2631  49
2632  44
2633  46
2634  34
2635  36
2636  32
2637  46
2638  42
2639  44
2640  40
2641  36
2642  43
2643  38
2644  45
2645  47
2646  43
2647  41
2648  41
2649  41
2650  53
2651  40
2652  43
2653  38
2654  40
2655  42
2656  38
2657  30
2658  34
2659  40
2660  39
2661  34
2662  44
2663  49
2664  41
2665  32
2666  42
2667  43
2668  35
2669  44
2670  32
2671  47
2672  37
2673  25
2674  42
2675  45
2676  32
2677  34
2678  53
2679  45
2680  36
2681  42
2682  40
2683  35
2684  29
2685  33
2686  43
2687  56
2688  35
2689  42
2690  35
2691  42
2692  41
2693  37
2694  40
2695  58
2696  47
2697  39
2698  26
2699  43
2700  40
2701  47
2702  39
2703  31
2704  45
2705  39
2706  35
2707  27
2708  36
2709  38
2710  42
2711  46
2712  36
2713  39
2714  43
2715  23
2716  40
2717  31
2718  40
2719  47
2720  42
2721  43
2722  26
2723  36
2724  35
2725  45
2726  45
2727  31
2728  38
2729  40
2730  34
2731  32
2732  36
2733  36
2734  39
2735  29
2736  30
2737  31
2738  32
2739  40
2740  33
2741  31
2742  37
2743  35
2744  38
2745  39
2746  37
2747  35
2748  47
2749  41
2750  45
2751  39
2752  43
2753  39
2754  31
2755  35
2756  57
2757  59
2758  42
2759  35
2760  38
2761  26
2762  53
2763  35
2764  38
2765  48
2766  52
2767  56
2768  52
2769  55
2770  48
2771  51
2772  36
2773  40
2774  43
2775  37
2776  36
2777  47
2778  42
2779  44
2780  43
2781  47
2782  40
2783  39
2784  27
2785  47
2786  37
2787  35
2788  46
2789  34
2790  42
2791  48
2792  39
2793  35
2794  39
2795  40
2796  33
2797  43
2798  27
2799  33
2800  39
2801  34
2802  37
2803  41
2804  32
2805  40
2806  45
2807  41
2808  40
2809  47
2810  41
2811  36
2812  35
2813  43
2814  41
2815  43
2816  35
2817  39
2818  45
2819  42
2820  41
2821  37
2822  23
2823  38
2824  38
2825  47
2826  42
2827  42
2828  30
2829  48
2830  47
2831  31
2832  49
2833  37
2834  34
2835  39
2836  30
2837  31
2838  43
2839  49
2840  47
2841  39
2842  51
2843  31
2844  27
2845  43
2846  52
2847  34
2848  39
2849  46
2850  42
2851  40
2852  35
2853  40
2854  39
2855  29
2856  45
2857  36
2858  37
2859  35
2860  36
2861  33
2862  29
2863  37
2864  37
2865  36
2866  38
2867  45
2868  34
2869  29
2870  37
2871  45
2872  44
2873  46
2874  35
2875  47
2876  48
2877  34
2878  41
2879  46
2880  42
2881  41
2882  34
2883  48
2884  46
2885  49
2886  35
2887  35
2888  33
2889  43
2890  33
2891  36
2892  35
2893  30
2894  41
2895  45
2896  43
2897  40
2898  35
2899  35
2900  35
2901  37
2902  30
2903  31
2904  31
2905  29
2906  38
2907  30
2908  39
2909  42
2910  43
2911  32
2912  24
2913  33
2914  43
2915  36
2916  27
2917  36
2918  40
2919  32
2920  43
2921  44
2922  44
2923  49
2924  34
2925  34
2926  35
2927  40
2928  39
2929  34
2930  37
2931  29
2932  41
2933  32
2934  48
2935  34
2936  44
2937  33
2938  33
2939  36
2940  42
2941  26
2942  30
2943  48
2944  42
2945  31
2946  28
2947  30
2948  47
2949  34
2950  38
2951  39
2952  38
2953  26
2954  40
2955  31
2956  34
2957  37
2958  33
2959  32
2960  53
2961  41
2962  34
2963  40
2964  36
2965  30
2966  37
2967  30
2968  36
2969  28
2970  30
2971  43
2972  35
2973  34
2974  33
2975  32
2976  32
2977  37
2978  34
2979  29
2980  30
2981  37
2982  36
2983  34
2984  31
2985  26
2986  38
2987  35
2988  29
2989  39
2990  29
2991  31
2992  40
2993  27
2994  32
2995  32
2996  33
2997  32
2998  40
2999  30
3000  31
3001  37
3002  40
3003  38
3004  38
3005  36
3006  30
3007  39
3008  33
3009  31
3010  40
3011  33
3012  30
3013  32
3014  34
3015  31
3016  30
3017  34
3018  32
3019  35
3020  39
3021  34
3022  31
3023  34
3024  32
3025  38
3026  43
3027  30
3028  36
3029  38
3030  36
3031  35
3032  43
3033  34
3034  32
3035  24
3036  43
3037  33
3038  38
3039  36
3040  32
3041  35
3042  33
3043  38
3044  37
3045  31
3046  39
3047  34
3048  29
3049  42
3050  30
3051  40
3052  42
3053  42
3054  35
3055  33
3056  26
3057  30
3058  35
3059  32
3060  34
3061  34
3062  28
3063  39
3064  32
3065  34
3066  42
3067  30
3068  44
3069  35
3070  43
3071  38
3072  35
3073  42
3074  33
3075  38
3076  49
3077  60
3078  53
3079  51
3080  64
3081  53
3082  51
3083  44
3084  44
3085  53
3086  36
3087  38
3088  36
3089  38
3090  33
3091  34
3092  35
3093  51
3094  43
3095  35
3096  33
3097  35
3098  34
3099  28
3100  35
3101  25
3102  40
3103  31
3104  30
3105  49
3106  32
3107  48
3108  33
3109  31
3110  30
3111  33
3112  34
3113  26
3114  32
3115  33
3116  29
3117  29
3118  37
3119  33
3120  25
3121  31
3122  22
3123  26
3124  36
3125  23
3126  32
3127  28
3128  34
3129  31
3130  23
3131  31
3132  26
3133  31
3134  33
3135  38
3136  43
3137  35
3138  37
3139  38
3140  31
3141  34
3142  32
3143  31
3144  38
3145  24
3146  34
3147  32
3148  34
3149  37
3150  34
3151  28
3152  42
3153  42
3154  35
3155  37
3156  38
3157  35
3158  32
3159  29
3160  16
3161  28
3162  31
3163  25
3164  19
3165  24
3166  29
3167  28
3168  36
3169  30
3170  34
3171  26
3172  29
3173  23
3174  21
3175  32
3176  35
3177  33
3178  30
3179  27
3180  21
3181  28
3182  32
3183  26
3184  32
3185  27
3186  18
3187  35
3188  27
3189  25
3190  36
3191  20
3192  36
3193  17
3194  23
3195  27
3196  19
3197  25
3198  24
3199  28
3200  30
3201  35
3202  37
3203  20
3204  24
3205  30
3206  22
3207  31
3208  28
3209  26
3210  26
3211  31
3212  21
3213  28
3214  41
3215  26
3216  37
3217  33
3218  29
3219  33
3220  28
3221  28
3222  33
3223  30
3224  26
3225  23
3226  40
3227  27
3228  29
3229  23
3230  28
3231  25
3232  26
3233  28
3234  20
3235  29
3236  28
3237  32
3238  34
3239  28
3240  25
3241  24
3242  33
3243  29
3244  25
3245  25
3246  28
3247  34
3248  31
3249  28
3250  31
3251  30
3252  25
3253  36
3254  25
3255  21
3256  32
3257  29
3258  31
3259  36
3260  21
3261  24
3262  26
3263  25
3264  31
3265  30
3266  26
3267  32
3268  29
3269  20
3270  27
3271  22
3272  31
3273  26
3274  25
3275  24
3276  30
3277  27
3278  27
3279  24
3280  25
3281  31
3282  42
3283  38
3284  44
3285  48
3286  41
3287  42
3288  36
3289  56
3290  45
3291  32
3292  39
3293  33
3294  22
3295  26
3296  24
3297  34
3298  28
3299  26
3300  21
3301  35
3302  31
3303  28
3304  33
3305  21
3306  27
3307  39
3308  22
3309  15
3310  28
3311  30
3312  19
3313  26
3314  22
3315  24
3316  28
3317  23
3318  26
3319  25
3320  27
3321  21
3322  23
3323  14
3324  30
3325  16
3326  31
3327  34
3328  30
3329  26
3330  25
3331  22
3332  28
3333  20
3334  35
3335  29
3336  22
3337  33
3338  30
3339  26
3340  28
3341  23
3342  18
3343  26
3344  27
3345  28
3346  23
3347  29
3348  35
3349  26
3350  17
3351  23
3352  32
3353  27
3354  20
3355  24
3356  32
3357  28
3358  17
3359  24
3360  26
3361  27
3362  25
3363  24
3364  21
3365  23
3366  19
3367  26
3368  25
3369  29
3370  24
3371  33
3372  18
3373  27
3374  17
3375  31
3376  26
3377  28
3378  25
3379  23
3380  26
3381  29
3382  22
3383  24
3384  23
3385  22
3386  18
3387  34
3388  21
3389  33
3390  21
3391  19
3392  25
3393  37
3394  19
3395  25
3396  33
3397  28
3398  21
3399  21
3400  18
3401  22
3402  31
3403  24
3404  25
3405  17
3406  28
3407  20
3408  29
3409  31
3410  18
3411  22
3412  12
3413  32
3414  20
3415  23
3416  19
3417  17
3418  22
3419  26
3420  14
3421  24
3422  28
3423  22
3424  31
3425  23
3426  24
3427  30
3428  21
3429  21
3430  18
3431  26
3432  24
3433  20
3434  26
3435  24
3436  21
3437  28
3438  21
3439  25
3440  35
3441  27
3442  20
3443  23
3444  28
3445  22
3446  30
3447  19
3448  25
3449  26
3450  25
3451  21
3452  19
3453  23
3454  20
3455  24
3456  20
3457  20
3458  38
3459  19
3460  23
3461  22
3462  19
3463  23
3464  37
3465  19
3466  33
3467  29
3468  22
3469  23
3470  21
3471  19
3472  22
3473  21
3474  26
3475  24
3476  22
3477  28
3478  33
3479  22
3480  26
3481  36
3482  18
3483  24
3484  31
3485  22
3486  21
3487  20
3488  24
3489  35
3490  21
3491  17
3492  27
3493  19
3494  30
3495  28
3496  27
3497  26
3498  27
3499  20
3500  24
3501  28
3502  15
3503  14
3504  12
3505  29
3506  20
3507  24
3508  26
3509  26
3510  25
3511  19
3512  24
3513  22
3514  23
3515  17
3516  27
3517  27
3518  24
3519  20
3520  31
3521  26
3522  26
3523  17
3524  31
3525  20
3526  27
3527  23
3528  14
3529  17
3530  22
3531  25
3532  26
3533  21
3534  20
3535  23
3536  29
3537  17
3538  23
3539  25
3540  22
3541  31
3542  26
3543  16
3544  27
3545  18
3546  23
3547  19
3548  18
3549  26
3550  29
3551  30
3552  22
3553  30
3554  31
3555  25
3556  19
3557  25
3558  32
3559  22
3560  25
3561  14
3562  24
3563  18
3564  18
3565  21
3566  24
3567  26
3568  17
3569  25
3570  23
3571  23
3572  32
3573  24
3574  19
3575  25
3576  20
3577  19
3578  15
3579  24
3580  23
3581  23
3582  27
3583  25
3584  20
3585  26
3586  24
3587  27
3588  17
3589  20
3590  27
3591  28
3592  28
3593  22
3594  20
3595  22
3596  28
3597  18
3598  13
3599  21
3600  23
3601  24
3602  28
3603  22
3604  36
3605  25
3606  27
3607  22
3608  23
3609  23
3610  30
3611  24
3612  26
3613  20
3614  23
3615  18
3616  22
3617  28
3618  28
3619  14
3620  23
3621  25
3622  20
3623  30
3624  21
3625  17
3626  23
3627  22
3628  20
3629  29
3630  23
3631  25
3632  22
3633  25
3634  24
3635  24
3636  15
3637  24
3638  21
3639  17
3640  22
3641  17
3642  21
3643  25
3644  22
3645  23
3646  20
3647  15
3648  22
3649  25
3650  23
3651  32
3652  25
3653  21
3654  23
3655  23
3656  23
3657  25
3658  22
3659  23
3660  26
3661  23
3662  18
3663  24
3664  19
3665  26
3666  19
3667  31
3668  23
3669  17
3670  23
3671  28
3672  23
3673  25
3674  22
3675  23
3676  18
3677  20
3678  26
3679  19
3680  25
3681  25
3682  27
3683  18
3684  20
3685  19
3686  22
3687  29
3688  17
3689  17
3690  17
3691  26
3692  23
3693  20
3694  24
3695  27
3696  21
3697  25
3698  20
3699  18
3700  21
3701  27
3702  30
3703  22
3704  35
3705  28
3706  28
3707  25
3708  34
3709  22
3710  33
3711  35
3712  33
3713  27
3714  24
3715  21
3716  23
3717  26
3718  18
3719  23
3720  24
3721  15
3722  30
3723  27
3724  16
3725  21
3726  23
3727  17
3728  16
3729  19
3730  21
3731  21
3732  19
3733  22
3734  26
3735  19
3736  9
3737  23
3738  18
3739  21
3740  15
3741  19
3742  25
3743  22
3744  20
3745  20
3746  20
3747  24
3748  21
3749  26
3750  28
3751  24
3752  31
3753  24
3754  34
3755  19
3756  25
3757  28
3758  30
3759  22
3760  18
3761  19
3762  23
3763  21
3764  27
3765  22
3766  35
3767  27
3768  31
3769  23
3770  24
3771  33
3772  19
3773  20
3774  25
3775  15
3776  13
3777  24
3778  24
3779  21
3780  19
3781  26
3782  25
3783  32
3784  29
3785  28
3786  26
3787  21
3788  27
3789  26
3790  29
3791  19
3792  20
3793  26
3794  18
3795  17
3796  22
3797  26
3798  22
3799  21
3800  29
3801  19
3802  23
3803  16
3804  21
3805  21
3806  19
3807  33
3808  24
3809  19
3810  14
3811  12
3812  19
3813  19
3814  25
3815  21
3816  24
3817  18
3818  26
3819  18
3820  14
3821  19
3822  23
3823  21
3824  20
3825  21
3826  28
3827  25
3828  26
3829  19
3830  22
3831  22
3832  16
3833  17
3834  24
3835  30
3836  17
3837  22
3838  23
3839  18
3840  29
3841  22
3842  31
3843  24
3844  20
3845  13
3846  18
3847  26
3848  15
3849  16
3850  20
3851  17
3852  23
3853  21
3854  24
3855  24
3856  20
3857  22
3858  18
3859  24
3860  28
3861  23
3862  25
3863  16
3864  22
3865  15
3866  26
3867  19
3868  17
3869  13
3870  20
3871  21
3872  22
3873  17
3874  23
3875  18
3876  16
3877  21
3878  26
3879  17
3880  19
3881  20
3882  21
3883  17
3884  18
3885  19
3886  20
3887  30
3888  19
3889  27
3890  22
3891  24
3892  20
3893  18
3894  23
3895  26
3896  32
3897  31
3898  22
3899  22
3900  23
3901  19
3902  19
3903  17
3904  26
3905  28
3906  23
3907  29
3908  16
3909  18
3910  14
3911  31
3912  20
3913  25
3914  19
3915  23
3916  22
3917  27
3918  32
3919  22
3920  23
3921  24
3922  33
3923  21
3924  35
3925  24
3926  34
3927  27
3928  34
3929  27
3930  23
3931  34
3932  30
3933  24
3934  18
3935  24
3936  21
3937  26
3938  31
3939  19
3940  17
3941  21
3942  24
3943  19
3944  23
3945  19
3946  26
3947  20
3948  20
3949  21
3950  24
3951  17
3952  27
3953  30
3954  25
3955  20
3956  22
3957  27
3958  28
3959  26
3960  23
3961  27
3962  37
3963  35
3964  28
3965  18
3966  38
3967  18
3968  24
3969  34
3970  39
3971  44
3972  49
3973  55
3974  73
3975  82
3976  90
3977  97
3978  105
3979  71
3980  81
3981  61
3982  42
3983  35
3984  38
3985  36
3986  34
3987  18
3988  24
3989  20
3990  17
3991  17
3992  16
3993  22
3994  21
3995  22
3996  27
3997  20
3998  20
3999  22
4000  14
4001  24
4002  24
4003  19
4004  18
4005  23
4006  20
4007  29
4008  19
4009  19
4010  26
4011  23
4012  17
4013  25
4014  18
4015  18
4016  12
4017  24
4018  21
4019  34
4020  21
4021  25
4022  17
4023  22
4024  19
4025  21
4026  18
4027  16
4028  20
4029  17
4030  21
4031  11
4032  19
4033  19
4034  27
4035  25
4036  29
4037  32
4038  18
4039  30
4040  22
4041  22
4042  24
4043  25
4044  20
4045  25
4046  25
4047  22
4048  32
4049  32
4050  26
4051  15
4052  15
4053  17
4054  21
4055  25
4056  25
4057  25
4058  24
4059  16
4060  28
4061  20
4062  27
4063  20
4064  15
4065  22
4066  20
4067  20
4068  17
4069  17
4070  22
4071  19
4072  23
4073  23
4074  19
4075  23
4076  25
4077  14
4078  17
4079  19
4080  26
4081  26
4082  23
4083  20
4084  29
4085  28
4086  32
4087  29
4088  28
4089  41
4090  50
4091  54
4092  70
4093  76
4094  119
4095  159
4096  212
4097  212
4098  249
4099  261
4100  224
4101  217
4102  214
4103  147
4104  105
4105  73
4106  61
4107  44
4108  31
4109  27
4110  24
4111  23
4112  27
4113  22
4114  24
4115  20
4116  24
4117  31
4118  28
4119  22
4120  23
4121  16
4122  25
4123  30
4124  22
4125  28
4126  20
4127  19
4128  23
4129  18
4130  23
4131  19
4132  24
4133  17
4134  19
4135  18
4136  19
4137  19
4138  24
4139  22
4140  24
4141  14
4142  18
4143  23
4144  16
4145  22
4146  25
4147  22
4148  28
4149  24
4150  23
4151  23
4152  21
4153  23
4154  20
4155  21
4156  20
4157  17
4158  14
4159  18
4160  20
4161  15
4162  17
4163  19
4164  26
4165  32
4166  14
4167  19
4168  20
4169  24
4170  28
4171  20
4172  19
4173  14
4174  24
4175  24
4176  30
4177  31
4178  19
4179  17
4180  27
4181  30
4182  30
4183  30
4184  36
4185  22
4186  19
4187  22
4188  29
4189  29
4190  28
4191  24
4192  30
4193  25
4194  28
4195  29
4196  36
4197  41
4198  57
4199  56
4200  54
4201  62
4202  56
4203  58
4204  46
4205  50
4206  40
4207  31
4208  31
4209  19
4210  20
4211  30
4212  25
4213  18
4214  24
4215  26
4216  18
4217  21
4218  23
4219  19
4220  19
4221  20
4222  25
4223  19
4224  13
4225  16
4226  17
4227  18
4228  14
4229  32
4230  21
4231  22
4232  15
4233  16
4234  14
4235  25
4236  21
4237  18
4238  31
4239  24
4240  8
4241  21
4242  21
4243  27
4244  24
4245  17
4246  19
4247  26
4248  18
4249  23
4250  22
4251  22
4252  15
4253  16
4254  25
4255  19
4256  23
4257  18
4258  23
4259  19
4260  22
4261  12
4262  22
4263  12
4264  12
4265  11
4266  17
4267  11
4268  26
4269  13
4270  16
4271  21
4272  20
4273  15
4274  15
4275  14
4276  15
4277  14
4278  15
4279  21
4280  17
4281  17
4282  17
4283  14
4284  18
4285  13
4286  16
4287  22
4288  17
4289  14
4290  9
4291  19
4292  12
4293  14
4294  15
4295  21
4296  17
4297  13
4298  15
4299  20
4300  23
4301  27
4302  19
4303  20
4304  17
4305  21
4306  8
4307  16
4308  18
4309  13
4310  10
4311  12
4312  19
4313  25
4314  15
4315  17
4316  20
4317  15
4318  17
4319  12
4320  13
4321  13
4322  12
4323  14
4324  14
4325  11
4326  18
4327  19
4328  11
4329  21
4330  16
4331  9
4332  10
4333  19
4334  13
4335  8
4336  14
4337  9
4338  7
4339  12
4340  12
4341  13
4342  13
4343  10
4344  13
4345  18
4346  22
4347  12
4348  17
4349  15
4350  14
4351  12
4352  11
4353  11
4354  12
4355  6
4356  9
4357  11
4358  11
4359  11
4360  17
4361  19
4362  9
4363  12
4364  16
4365  17
4366  11
4367  13
4368  15
4369  9
4370  12
4371  7
4372  14
4373  12
4374  9
4375  10
4376  16
4377  13
4378  9
4379  12
4380  19
4381  14
4382  16
4383  10
4384  14
4385  14
4386  12
4387  3
4388  12
4389  8
4390  12
4391  9
4392  12
4393  13
4394  8
4395  14
4396  19
4397  12
4398  9
4399  13
4400  17
4401  16
4402  15
4403  14
4404  14
4405  21
4406  16
4407  9
4408  14
4409  17
4410  13
4411  10
4412  11
4413  11
4414  17
4415  13
4416  11
4417  9
4418  9
4419  10
4420  5
4421  16
4422  6
4423  17
4424  13
4425  11
4426  13
4427  12
4428  17
4429  14
4430  20
4431  16
4432  18
4433  13
4434  21
4435  20
4436  13
4437  19
4438  19
4439  10
4440  11
4441  17
4442  12
4443  17
4444  9
4445  14
4446  18
4447  13
4448  14
4449  8
4450  10
4451  14
4452  18
4453  16
4454  13
4455  12
4456  10
4457  7
4458  9
4459  14
4460  11
4461  11
4462  16
4463  11
4464  10
4465  10
4466  14
4467  8
4468  11
4469  15
4470  6
4471  10
4472  6
4473  10
4474  11
4475  14
4476  14
4477  12
4478  10
4479  11
4480  7
4481  10
4482  11
4483  13
4484  11
4485  12
4486  9
4487  8
4488  11
4489  12
4490  9
4491  9
4492  6
4493  13
4494  13
4495  15
4496  14
4497  11
4498  9
4499  14
4500  9
4501  10
4502  8
4503  8
4504  12
4505  14
4506  12
4507  10
4508  8
4509  14
4510  11
4511  10
4512  13
4513  12
4514  17
4515  13
4516  14
4517  7
4518  14
4519  13
4520  14
4521  5
4522  11
4523  6
4524  12
4525  8
4526  13
4527  6
4528  6
4529  9
4530  11
4531  7
4532  16
4533  6
4534  9
4535  13
4536  6
4537  7
4538  16
4539  15
4540  13
4541  13
4542  15
4543  14
4544  9
4545  13
4546  11
4547  12
4548  15
4549  7
4550  11
4551  12
4552  10
4553  5
4554  8
4555  5
4556  8
4557  9
4558  9
4559  7
4560  8
4561  6
4562  5
4563  4
4564  7
4565  4
4566  17
4567  5
4568  5
4569  7
4570  10
4571  7
4572  10
4573  8
4574  8
4575  7
4576  7
4577  10
4578  4
4579  9
4580  16
4581  13
4582  6
4583  8
4584  10
4585  12
4586  9
4587  13
4588  6
4589  6
4590  9
4591  11
4592  9
4593  10
4594  10
4595  12
4596  15
4597  12
4598  6
4599  10
4600  11
4601  9
4602  10
4603  6
4604  11
4605  7
4606  16
4607  14
4608  10
4609  9
4610  10
4611  10
4612  8
4613  5
4614  9
4615  10
4616  12
4617  7
4618  6
4619  13
4620  6
4621  12
4622  12
4623  15
4624  10
4625  8
4626  5
4627  9
4628  11
4629  8
4630  10
4631  10
4632  11
4633  14
4634  7
4635  11
4636  7
4637  9
4638  9
4639  9
4640  4
4641  10
4642  8
4643  12
4644  7
4645  8
4646  8
4647  7
4648  7
4649  8
4650  9
4651  5
4652  8
4653  7
4654  9
4655  8
4656  5
4657  10
4658  6
4659  10
4660  7
4661  8
4662  10
4663  7
4664  8
4665  6
4666  12
4667  10
4668  10
4669  4
4670  9
4671  14
4672  10
4673  5
4674  4
4675  8
4676  6
4677  8
4678  7
4679  9
4680  16
4681  12
4682  10
4683  15
4684  15
4685  18
4686  17
4687  17
4688  28
4689  17
4690  26
4691  22
4692  15
4693  7
4694  11
4695  7
4696  14
4697  15
4698  11
4699  14
4700  13
4701  11
4702  22
4703  22
4704  21
4705  10
4706  17
4707  19
4708  9
4709  8
4710  11
4711  12
4712  0
4713  11
4714  3
4715  8
4716  11
4717  10
4718  8
4719  9
4720  15
4721  7
4722  14
4723  13
4724  6
4725  11
4726  10
4727  11
4728  7
4729  10
4730  16
4731  9
4732  7
4733  7
4734  8
4735  3
4736  7
4737  7
4738  6
4739  4
4740  7
4741  10
4742  6
4743  9
4744  8
4745  1
4746  3
4747  4
4748  7
4749  7
4750  7
4751  4
4752  8
4753  3
4754  5
4755  5
4756  9
4757  1
4758  6
4759  8
4760  5
4761  6
4762  6
4763  6
4764  9
4765  13
4766  6
4767  8
4768  7
4769  5
4770  9
4771  8
4772  6
4773  5
4774  10
4775  12
4776  7
4777  3
4778  9
4779  3
4780  7
4781  12
4782  8
4783  10
4784  8
4785  13
4786  8
4787  7
4788  8
4789  6
4790  3
4791  7
4792  7
4793  10
4794  3
4795  5
4796  4
4797  9
4798  13
4799  5
4800  5
4801  3
4802  5
4803  6
4804  9
4805  10
4806  9
4807  6
4808  3
4809  6
4810  7
4811  7
4812  7
4813  5
4814  3
4815  9
4816  6
4817  7
4818  9
4819  4
4820  3
4821  12
4822  8
4823  4
4824  14
4825  3
4826  5
4827  5
4828  3
4829  6
4830  7
4831  10
4832  11
4833  7
4834  9
4835  13
4836  4
4837  9
4838  7
4839  12
4840  6
4841  6
4842  6
4843  6
4844  5
4845  8
4846  11
4847  10
4848  15
4849  11
4850  10
4851  10
4852  9
4853  4
4854  12
4855  5
4856  6
4857  9
4858  9
4859  5
4860  3
4861  5
4862  12
4863  4
4864  7
4865  2
4866  8
4867  4
4868  6
4869  7
4870  3
4871  5
4872  6
4873  3
4874  7
4875  9
4876  4
4877  6
4878  4
4879  7
4880  10
4881  6
4882  3
4883  7
4884  5
4885  7
4886  2
4887  7
4888  4
4889  5
4890  9
4891  7
4892  10
4893  5
4894  12
4895  8
4896  9
4897  10
4898  10
4899  10
4900  10
4901  10
4902  16
4903  10
4904  11
4905  13
4906  10
4907  8
4908  9
4909  14
4910  8
4911  7
4912  13
4913  8
4914  7
4915  13
4916  5
4917  14
4918  15
4919  14
4920  15
4921  16
4922  14
4923  13
4924  15
4925  21
4926  23
4927  18
4928  14
4929  10
4930  18
4931  19
4932  9
4933  10
4934  7
4935  9
4936  5
4937  8
4938  4
4939  2
4940  8
4941  12
4942  7
4943  4
4944  4
4945  7
4946  3
4947  6
4948  2
4949  6
4950  6
4951  6
4952  5
4953  6
4954  6
4955  4
4956  10
4957  8
4958  6
4959  8
4960  6
4961  3
4962  4
4963  7
4964  6
4965  6
4966  5
4967  5
4968  2
4969  5
4970  8
4971  6
4972  3
4973  5
4974  4
4975  8
4976  4
4977  10
4978  5
4979  3
4980  4
4981  6
4982  9
4983  5
4984  3
4985  6
4986  4
4987  3
4988  4
4989  6
4990  9
4991  2
4992  10
4993  6
4994  6
4995  2
4996  9
4997  5
4998  8
4999  4
5000  5
5001  5
5002  7
5003  9
5004  5
5005  3
5006  8
5007  9
5008  2
5009  6
5010  5
5011  4
5012  9
5013  10
5014  5
5015  5
5016  9
5017  9
5018  8
5019  11
5020  6
5021  11
5022  16
5023  20
5024  16
5025  29
5026  21
5027  30
5028  15
5029  22
5030  15
5031  15
5032  14
5033  11
5034  6
5035  14
5036  5
5037  10
5038  8
5039  5
5040  9
5041  3
5042  7
5043  7
5044  8
5045  5
5046  5
5047  3
5048  3
5049  5
5050  11
5051  10
5052  5
5053  6
5054  6
5055  7
5056  6
5057  6
5058  7
5059  10
5060  10
5061  3
5062  5
5063  5
5064  8
5065  5
5066  3
5067  3
5068  6
5069  4
5070  4
5071  6
5072  6
5073  5
5074  5
5075  8
5076  5
5077  4
5078  8
5079  9
5080  6
5081  4
5082  10
5083  2
5084  3
5085  2
5086  7
5087  7
5088  4
5089  5
5090  1
5091  7
5092  4
5093  4
5094  8
5095  6
5096  4
5097  2
5098  9
5099  5
5100  2
5101  2
5102  4
5103  2
5104  5
5105  4
5106  4
5107  4
5108  5
5109  7
5110  3
5111  6
5112  6
5113  5
5114  3
5115  4
5116  6
5117  7
5118  4
5119  11
5120  6
5121  9
5122  8
5123  9
5124  3
5125  4
5126  5
5127  8
5128  6
5129  3
5130  7
5131  8
5132  6
5133  4
5134  3
5135  5
5136  5
5137  10
5138  6
5139  2
5140  5
5141  6
5142  4
5143  7
5144  7
5145  7
5146  9
5147  9
5148  8
5149  10
5150  6
5151  9
5152  6
5153  3
5154  10
5155  6
5156  6
5157  5
5158  2
5159  8
5160  5
5161  6
5162  4
5163  5
5164  3
5165  2
5166  7
5167  6
5168  7
5169  4
5170  8
5171  9
5172  2
5173  0
5174  2
5175  5
5176  4
5177  7
5178  5
5179  8
5180  3
5181  10
5182  8
5183  3
5184  5
5185  5
5186  6
5187  3
5188  6
5189  3
5190  4
5191  1
5192  6
5193  6
5194  6
5195  5
5196  5
5197  5
5198  2
5199  4
5200  6
5201  5
5202  4
5203  3
5204  10
5205  6
5206  10
5207  6
5208  8
5209  3
5210  9
5211  3
5212  6
5213  5
5214  5
5215  8
5216  6
5217  9
5218  6
5219  7
5220  5
5221  5
5222  9
5223  2
5224  7
5225  3
5226  5
5227  8
5228  7
5229  3
5230  1
5231  5
5232  7
5233  4
5234  7
5235  3
5236  6
5237  5
5238  4
5239  9
5240  1
5241  3
5242  3
5243  3
5244  7
5245  8
5246  4
5247  7
5248  3
5249  5
5250  9
5251  3
5252  4
5253  3
5254  5
5255  4
5256  4
5257  4
5258  3
5259  7
5260  7
5261  7
5262  7
5263  8
5264  4
5265  6
5266  6
5267  4
5268  7
5269  4
5270  4
5271  5
5272  3
5273  5
5274  7
5275  6
5276  8
5277  5
5278  3
5279  6
5280  5
5281  6
5282  9
5283  4
5284  9
5285  10
5286  6
5287  8
5288  9
5289  5
5290  6
5291  5
5292  7
5293  1
5294  4
5295  9
5296  11
5297  14
5298  14
5299  24
5300  28
5301  41
5302  52
5303  71
5304  114
5305  138
5306  199
5307  243
5308  264
5309  322
5310  380
5311  419
5312  411
5313  432
5314  358
5315  323
5316  239
5317  197
5318  136
5319  91
5320  55
5321  34
5322  15
5323  13
5324  5
5325  5
5326  5
5327  3
5328  5
5329  8
5330  4
5331  5
5332  2
5333  5
5334  4
5335  3
5336  6
5337  3
5338  3
5339  5
5340  2
5341  8
5342  4
5343  2
5344  6
5345  1
5346  3
5347  2
5348  5
5349  0
5350  9
5351  4
5352  4
5353  1
5354  8
5355  6
5356  8
5357  3
5358  4
5359  6
5360  4
5361  2
5362  5
5363  3
5364  9
5365  5
5366  4
5367  1
5368  6
5369  2
5370  3
5371  4
5372  4
5373  5
5374  3
5375  5
5376  5
5377  2
5378  2
5379  1
5380  2
5381  1
5382  4
5383  4
5384  3
5385  6
5386  3
5387  3
5388  4
5389  4
5390  7
5391  4
5392  3
5393  7
5394  3
5395  6
5396  5
5397  4
5398  2
5399  2
5400  5
5401  1
5402  4
5403  3
5404  5
5405  6
5406  2
5407  2
5408  5
5409  4
5410  8
5411  4
5412  3
5413  4
5414  2
5415  1
5416  2
5417  4
5418  5
5419  3
5420  3
5421  5
5422  0
5423  3
5424  8
5425  3
5426  8
5427  4
5428  1
5429  3
5430  0
5431  3
5432  1
5433  4
5434  6
5435  3
5436  3
5437  4
5438  2
5439  4
5440  2
5441  1
5442  2
5443  4
5444  5
5445  1
5446  3
5447  6
5448  0
5449  5
5450  3
5451  2
5452  4
5453  5
5454  2
5455  0
5456  5
5457  3
5458  2
5459  1
5460  4
5461  9
5462  2
5463  1
5464  4
5465  5
5466  2
5467  2
5468  3
5469  4
5470  3
5471  4
5472  3
5473  4
5474  4
5475  0
5476  1
5477  5
5478  5
5479  4
5480  5
5481  3
5482  4
5483  0
5484  4
5485  2
5486  4
5487  1
5488  1
5489  4
5490  8
5491  4
5492  1
5493  3
5494  5
5495  5
5496  3
5497  2
5498  4
5499  3
5500  3
5501  2
5502  2
5503  1
5504  2
5505  0
5506  2
5507  1
5508  4
5509  4
5510  2
5511  4
5512  3
5513  3
5514  1
5515  3
5516  4
5517  7
5518  7
5519  2
5520  9
5521  3
5522  7
5523  5
5524  2
5525  4
5526  7
5527  1
5528  5
5529  6
5530  4
5531  2
5532  1
5533  1
5534  3
5535  7
5536  1
5537  6
5538  4
5539  2
5540  0
5541  4
5542  5
5543  2
5544  2
5545  1
5546  2
5547  1
5548  1
5549  3
5550  3
5551  3
5552  5
5553  6
5554  1
5555  6
5556  1
5557  2
5558  3
5559  4
5560  1
5561  3
5562  3
5563  1
5564  1
5565  0
5566  4
5567  4
5568  4
5569  3
5570  4
5571  1
5572  2
5573  3
5574  0
5575  4
5576  1
5577  4
5578  2
5579  1
5580  5
5581  2
5582  4
5583  1
5584  6
5585  3
5586  3
5587  3
5588  2
5589  1
5590  6
5591  3
5592  1
5593  3
5594  1
5595  3
5596  4
5597  1
5598  4
5599  1
5600  3
5601  3
5602  1
5603  1
5604  3
5605  1
5606  2
5607  3
5608  4
5609  2
5610  4
5611  4
5612  4
5613  6
5614  1
5615  5
5616  2
5617  1
5618  2
5619  5
5620  2
5621  2
5622  4
5623  8
5624  3
5625  4
5626  2
5627  5
5628  9
5629  3
5630  4
5631  2
5632  1
5633  4
5634  2
5635  4
5636  1
5637  3
5638  4
5639  0
5640  1
5641  6
5642  1
5643  1
5644  2
5645  3
5646  0
5647  2
5648  5
5649  6
5650  1
5651  2
5652  2
5653  2
5654  3
5655  0
5656  3
5657  1
5658  4
5659  4
5660  3
5661  3
5662  2
5663  3
5664  1
5665  2
5666  3
5667  4
5668  3
5669  3
5670  1
5671  3
5672  3
5673  3
5674  5
5675  4
5676  2
5677  0
5678  3
5679  2
5680  2
5681  3
5682  2
5683  5
5684  1
5685  1
5686  2
5687  3
5688  5
5689  4
5690  1
5691  1
5692  4
5693  3
5694  3
5695  2
5696  6
5697  2
5698  5
5699  1
5700  2
5701  0
5702  4
5703  3
5704  3
5705  2
5706  3
5707  2
5708  2
5709  3
5710  5
5711  2
5712  3
5713  2
5714  4
5715  1
5716  4
5717  2
5718  2
5719  2
5720  1
5721  3
5722  3
5723  5
5724  6
5725  2
5726  2
5727  4
5728  1
5729  3
5730  5
5731  3
5732  3
5733  3
5734  3
5735  5
5736  5
5737  6
5738  2
5739  3
5740  4
5741  2
5742  1
5743  3
5744  4
5745  4
5746  1
5747  6
5748  6
5749  4
5750  0
5751  3
5752  2
5753  5
5754  3
5755  1
5756  1
5757  1
5758  3
5759  3
5760  3
5761  1
5762  5
5763  2
5764  4
5765  2
5766  4
5767  3
5768  4
5769  1
5770  2
5771  3
5772  3
5773  1
5774  1
5775  3
5776  5
5777  2
5778  3
5779  4
5780  7
5781  3
5782  2
5783  1
5784  1
5785  5
5786  4
5787  2
5788  0
5789  2
5790  2
5791  3
5792  3
5793  2
5794  2
5795  4
5796  3
5797  5
5798  3
5799  2
5800  7
5801  1
5802  3
5803  3
5804  3
5805  4
5806  1
5807  1
5808  1
5809  5
5810  0
5811  2
5812  2
5813  0
5814  2
5815  1
5816  3
5817  2
5818  2
5819  3
5820  0
5821  1
5822  4
5823  3
5824  2
5825  2
5826  1
5827  2
5828  5
5829  5
5830  1
5831  6
5832  2
5833  2
5834  2
5835  0
5836  2
5837  4
5838  4
5839  3
5840  4
5841  5
5842  4
5843  2
5844  0
5845  3
5846  2
5847  4
5848  1
5849  1
5850  2
5851  1
5852  0
5853  1
5854  3
5855  4
5856  3
5857  2
5858  6
5859  0
5860  2
5861  2
5862  1
5863  2
5864  3
5865  2
5866  3
5867  3
5868  0
5869  3
5870  3
5871  3
5872  2
5873  5
5874  5
5875  2
5876  3
5877  5
5878  3
5879  1
5880  0
5881  3
5882  0
5883  4
5884  4
5885  3
5886  2
5887  1
5888  2
5889  0
5890  3
5891  2
5892  2
5893  2
5894  3
5895  2
5896  2
5897  2
5898  8
5899  3
5900  2
5901  2
5902  1
5903  4
5904  4
5905  4
5906  5
5907  3
5908  2
5909  1
5910  1
5911  5
5912  3
5913  2
5914  3
5915  3
5916  6
5917  3
5918  5
5919  1
5920  4
5921  3
5922  4
5923  7
5924  4
5925  8
5926  8
5927  7
5928  4
5929  6
5930  4
5931  9
5932  3
5933  6
5934  5
5935  3
5936  5
5937  5
5938  4
5939  2
5940  4
5941  0
5942  8
5943  8
5944  4
5945  2
5946  5
5947  2
5948  5
5949  4
5950  6
5951  7
5952  4
5953  6
5954  7
5955  4
5956  1
5957  5
5958  0
5959  4
5960  0
5961  1
5962  1
5963  2
5964  6
5965  2
5966  3
5967  1
5968  1
5969  1
5970  2
5971  0
5972  2
5973  3
5974  4
5975  2
5976  4
5977  1
5978  2
5979  0
5980  6
5981  2
5982  3
5983  3
5984  4
5985  2
5986  1
5987  1
5988  2
5989  0
5990  4
5991  4
5992  3
5993  1
5994  2
5995  2
5996  4
5997  2
5998  3
5999  5
6000  1
6001  1
6002  5
6003  3
6004  3
6005  0
6006  1
6007  1
6008  2
6009  1
6010  3
6011  1
6012  0
6013  1
6014  2
6015  5
6016  1
6017  1
6018  3
6019  3
6020  3
6021  1
6022  2
6023  1
6024  3
6025  2
6026  4
6027  4
6028  1
6029  1
6030  4
6031  2
6032  1
6033  0
6034  3
6035  2
6036  1
6037  2
6038  3
6039  2
6040  3
6041  3
6042  2
6043  7
6044  2
6045  1
6046  4
6047  4
6048  3
6049  1
6050  3
6051  2
6052  2
6053  2
6054  6
6055  2
6056  4
6057  4
6058  3
6059  0
6060  2
6061  1
6062  1
6063  5
6064  2
6065  2
6066  5
6067  3
6068  1
6069  2
6070  2
6071  3
6072  2
6073  0
6074  2
6075  4
6076  3
6077  8
6078  3
6079  3
6080  3
6081  2
6082  4
6083  3
6084  4
6085  1
6086  6
6087  4
6088  3
6089  2
6090  0
6091  2
6092  3
6093  2
6094  4
6095  1
6096  6
6097  6
6098  6
6099  5
6100  3
6101  2
6102  1
6103  3
6104  4
6105  4
6106  2
6107  2
6108  3
6109  3
6110  2
6111  2
6112  5
6113  4
6114  4
6115  3
6116  1
6117  5
6118  4
6119  1
6120  3
6121  4
6122  2
6123  0
6124  0
6125  3
6126  3
6127  3
6128  3
6129  3
6130  4
6131  2
6132  4
6133  1
6134  4
6135  4
6136  3
6137  5
6138  3
6139  6
6140  1
6141  2
6142  2
6143  1
6144  3
6145  2
6146  4
6147  5
6148  2
6149  1
6150  5
6151  4
6152  5
6153  3
6154  4
6155  2
6156  3
6157  4
6158  1
6159  1
6160  3
6161  1
6162  2
6163  3
6164  4
6165  3
6166  0
6167  1
6168  2
6169  0
6170  2
6171  3
6172  3
6173  0
6174  2
6175  6
6176  4
6177  5
6178  4
6179  3
6180  1
6181  3
6182  1
6183  2
6184  1
6185  4
6186  2
6187  4
6188  2
6189  2
6190  3
6191  7
6192  0
6193  3
6194  5
6195  2
6196  2
6197  1
6198  2
6199  1
6200  4
6201  5
6202  4
6203  3
6204  1
6205  0
6206  2
6207  3
6208  2
6209  3
6210  2
6211  2
6212  3
6213  3
6214  5
6215  4
6216  3
6217  2
6218  7
6219  5
6220  3
6221  0
6222  2
6223  4
6224  2
6225  2
6226  3
6227  2
6228  6
6229  2
6230  7
6231  3
6232  1
6233  2
6234  2
6235  2
6236  6
6237  1
6238  2
6239  3
6240  3
6241  1
6242  3
6243  4
6244  2
6245  2
6246  1
6247  2
6248  1
6249  1
6250  2
6251  5
6252  2
6253  3
6254  8
6255  1
6256  6
6257  2
6258  2
6259  2
6260  2
6261  3
6262  1
6263  1
6264  7
6265  0
6266  5
6267  3
6268  5
6269  3
6270  3
6271  3
6272  4
6273  1
6274  1
6275  6
6276  3
6277  5
6278  2
6279  1
6280  3
6281  1
6282  7
6283  4
6284  1
6285  4
6286  2
6287  5
6288  3
6289  1
6290  2
6291  2
6292  4
6293  3
6294  2
6295  5
6296  2
6297  2
6298  5
6299  4
6300  2
6301  3
6302  0
6303  5
6304  7
6305  6
6306  6
6307  7
6308  9
6309  8
6310  1
6311  9
6312  10
6313  6
6314  3
6315  4
6316  4
6317  3
6318  2
6319  3
6320  2
6321  3
6322  3
6323  2
6324  2
6325  0
6326  1
6327  5
6328  1
6329  3
6330  3
6331  1
6332  1
6333  5
6334  4
6335  3
6336  1
6337  0
6338  5
6339  5
6340  7
6341  1
6342  0
6343  1
6344  2
6345  3
6346  4
6347  3
6348  2
6349  6
6350  1
6351  2
6352  0
6353  1
6354  3
6355  0
6356  4
6357  3
6358  2
6359  1
6360  3
6361  2
6362  0
6363  3
6364  3
6365  4
6366  1
6367  4
6368  0
6369  3
6370  3
6371  3
6372  6
6373  3
6374  5
6375  4
6376  1
6377  2
6378  0
6379  4
6380  3
6381  2
6382  2
6383  2
6384  4
6385  2
6386  0
6387  4
6388  2
6389  7
6390  2
6391  3
6392  1
6393  6
6394  3
6395  2
6396  4
6397  3
6398  2
6399  2
6400  2
6401  2
6402  4
6403  0
6404  4
6405  1
6406  5
6407  3
6408  2
6409  1
6410  1
6411  0
6412  7
6413  0
6414  3
6415  3
6416  1
6417  3
6418  2
6419  2
6420  5
6421  5
6422  2
6423  2
6424  4
6425  1
6426  1
6427  2
6428  2
6429  7
6430  2
6431  6
6432  1
6433  3
6434  1
6435  3
6436  2
6437  1
6438  2
6439  2
6440  5
6441  1
6442  6
6443  0
6444  6
6445  3
6446  1
6447  3
6448  1
6449  0
6450  6
6451  1
6452  0
6453  5
6454  3
6455  4
6456  6
6457  0
6458  3
6459  1
6460  3
6461  2
6462  4
6463  2
6464  7
6465  2
6466  3
6467  5
6468  2
6469  2
6470  4
6471  1
6472  3
6473  1
6474  5
6475  2
6476  2
6477  2
6478  1
6479  8
6480  0
6481  1
6482  2
6483  7
6484  6
6485  3
6486  4
6487  3
6488  3
6489  4
6490  2
6491  2
6492  2
6493  1
6494  3
6495  5
6496  1
6497  4
6498  2
6499  3
6500  3
6501  0
6502  1
6503  1
6504  2
6505  3
6506  4
6507  1
6508  0
6509  2
6510  4
6511  1
6512  3
6513  1
6514  1
6515  3
6516  3
6517  2
6518  2
6519  4
6520  2
6521  1
6522  2
6523  4
6524  2
6525  3
6526  2
6527  6
6528  2
6529  2
6530  2
6531  2
6532  2
6533  1
6534  4
6535  5
6536  3
6537  4
6538  8
6539  3
6540  5
6541  5
6542  3
6543  1
6544  2
6545  0
6546  6
6547  1
6548  3
6549  4
6550  1
6551  3
6552  2
6553  1
6554  5
6555  2
6556  3
6557  2
6558  3
6559  2
6560  2
6561  3
6562  1
6563  3
6564  3
6565  1
6566  2
6567  1
6568  1
6569  4
6570  0
6571  0
6572  1
6573  4
6574  0
6575  3
6576  5
6577  4
6578  0
6579  1
6580  4
6581  3
6582  1
6583  1
6584  2
6585  4
6586  2
6587  1
6588  2
6589  3
6590  3
6591  4
6592  0
6593  3
6594  3
6595  1
6596  1
6597  1
6598  1
6599  2
6600  0
6601  1
6602  2
6603  2
6604  0
6605  2
6606  0
6607  0
6608  1
6609  2
6610  3
6611  0
6612  1
6613  7
6614  3
6615  3
6616  3
6617  2
6618  3
6619  3
6620  2
6621  4
6622  1
6623  2
6624  3
6625  1
6626  2
6627  2
6628  1
6629  2
6630  1
6631  3
6632  2
6633  0
6634  3
6635  1
6636  1
6637  3
6638  3
6639  3
6640  1
6641  1
6642  4
6643  4
6644  2
6645  4
6646  1
6647  5
6648  1
6649  3
6650  5
6651  1
6652  3
6653  2
6654  1
6655  1
6656  5
6657  1
6658  1
6659  0
6660  1
6661  0
6662  2
6663  3
6664  2
6665  2
6666  2
6667  3
6668  2
6669  1
6670  2
6671  2
6672  2
6673  3
6674  3
6675  3
6676  2
6677  2
6678  3
6679  1
6680  0
6681  2
6682  2
6683  1
6684  0
6685  3
6686  3
6687  2
6688  0
6689  1
6690  2
6691  4
6692  2
6693  2
6694  3
6695  0
6696  3
6697  1
6698  0
6699  3
6700  2
6701  2
6702  2
6703  4
6704  2
6705  3
6706  2
6707  0
6708  0
6709  1
6710  5
6711  2
6712  3
6713  2
6714  2
6715  3
6716  1
6717  4
6718  2
6719  2
6720  1
6721  2
6722  3
6723  1
6724  5
6725  0
6726  1
6727  1
6728  2
6729  5
6730  2
6731  1
6732  0
6733  1
6734  3
6735  3
6736  2
6737  0
6738  2
6739  3
6740  1
6741  1
6742  1
6743  1
6744  0
6745  4
6746  1
6747  1
6748  2
6749  1
6750  3
6751  1
6752  2
6753  0
6754  4
6755  4
6756  1
6757  9
6758  2
6759  0
6760  1
6761  1
6762  2
6763  1
6764  0
6765  1
6766  1
6767  1
6768  2
6769  3
6770  2
6771  2
6772  3
6773  4
6774  4
6775  4
6776  1
6777  1
6778  3
6779  0
6780  4
6781  3
6782  0
6783  3
6784  4
6785  2
6786  2
6787  0
6788  1
6789  1
6790  4
6791  0
6792  2
6793  2
6794  2
6795  1
6796  3
6797  2
6798  1
6799  5
6800  3
6801  3
6802  5
6803  3
6804  0
6805  1
6806  3
6807  4
6808  1
6809  7
6810  0
6811  1
6812  3
6813  7
6814  0
6815  0
6816  5
6817  2
6818  2
6819  4
6820  3
6821  2
6822  3
6823  3
6824  1
6825  3
6826  0
6827  2
6828  1
6829  1
6830  2
6831  1
6832  2
6833  3
6834  2
6835  0
6836  3
6837  0
6838  0
6839  2
6840  1
6841  4
6842  4
6843  1
6844  4
6845  0
6846  1
6847  3
6848  2
6849  5
6850  1
6851  2
6852  2
6853  1
6854  3
6855  3
6856  1
6857  2
6858  2
6859  1
6860  0
6861  2
6862  6
6863  0
6864  6
6865  1
6866  1
6867  1
6868  5
6869  0
6870  3
6871  1
6872  1
6873  4
6874  3
6875  0
6876  3
6877  1
6878  0
6879  2
6880  5
6881  1
6882  1
6883  2
6884  3
6885  0
6886  0
6887  2
6888  1
6889  2
6890  1
6891  1
6892  5
6893  1
6894  2
6895  2
6896  5
6897  5
6898  2
6899  3
6900  1
6901  2
6902  0
6903  0
6904  5
6905  1
6906  1
6907  1
6908  3
6909  0
6910  2
6911  0
6912  1
6913  3
6914  2
6915  1
6916  1
6917  1
6918  0
6919  1
6920  2
6921  2
6922  2
6923  2
6924  6
6925  0
6926  1
6927  2
6928  2
6929  3
6930  2
6931  0
6932  2
6933  2
6934  3
6935  2
6936  2
6937  2
6938  1
6939  1
6940  2
6941  3
6942  1
6943  1
6944  1
6945  2
6946  1
6947  2
6948  2
6949  0
6950  2
6951  0
6952  4
6953  3
6954  1
6955  1
6956  1
6957  1
6958  2
6959  0
6960  3
6961  1
6962  0
6963  0
6964  0
6965  1
6966  1
6967  1
6968  1
6969  1
6970  1
6971  1
6972  1
6973  1
6974  4
6975  1
6976  1
6977  2
6978  2
6979  3
6980  2
6981  0
6982  0
6983  2
6984  2
6985  1
6986  2
6987  1
6988  5
6989  2
6990  1
6991  0
6992  1
6993  0
6994  1
6995  2
6996  1
6997  2
6998  2
6999  3
7000  1
7001  0
7002  0
7003  4
7004  1
7005  0
7006  1
7007  0
7008  1
7009  2
7010  1
7011  1
7012  2
7013  1
7014  2
7015  2
7016  2
7017  2
7018  3
7019  2
7020  1
7021  1
7022  0
7023  4
7024  2
7025  0
7026  0
7027  2
7028  2
7029  1
7030  1
7031  0
7032  0
7033  0
7034  3
7035  2
7036  0
7037  5
7038  1
7039  3
7040  2
7041  3
7042  1
7043  1
7044  2
7045  1
7046  3
7047  2
7048  2
7049  3
7050  0
7051  1
7052  0
7053  1
7054  0
7055  0
7056  3
7057  1
7058  5
7059  1
7060  4
7061  4
7062  3
7063  1
7064  1
7065  1
7066  0
7067  1
7068  1
7069  1
7070  1
7071  2
7072  1
7073  4
7074  1
7075  1
7076  0
7077  2
7078  3
7079  0
7080  1
7081  3
7082  4
7083  1
7084  0
7085  2
7086  5
7087  3
7088  2
7089  1
7090  0
7091  3
7092  0
7093  1
7094  1
7095  3
7096  1
7097  1
7098  2
7099  0
7100  1
7101  3
7102  0
7103  1
7104  0
7105  0
7106  2
7107  1
7108  1
7109  0
7110  2
7111  4
7112  3
7113  1
7114  2
7115  1
7116  0
7117  0
7118  0
7119  0
7120  5
7121  1
7122  2
7123  1
7124  4
7125  2
7126  2
7127  1
7128  2
7129  2
7130  2
7131  2
7132  1
7133  3
7134  1
7135  2
7136  1
7137  1
7138  5
7139  0
7140  3
7141  4
7142  1
7143  4
7144  2
7145  2
7146  0
7147  2
7148  1
7149  2
7150  3
7151  0
7152  4
7153  0
7154  0
7155  1
7156  4
7157  4
7158  0
7159  0
7160  2
7161  2
7162  2
7163  0
7164  0
7165  0
7166  0
7167  0
7168  0
7169  2
7170  2
7171  2
7172  3
7173  0
7174  2
7175  2
7176  0
7177  2
7178  3
7179  0
7180  1
7181  0
7182  1
7183  1
7184  2
7185  3
7186  0
7187  2
7188  1
7189  2
7190  2
7191  3
7192  3
7193  2
7194  1
7195  2
7196  2
7197  1
7198  1
7199  0
7200  4
7201  4
7202  1
7203  0
7204  3
7205  1
7206  0
7207  0
7208  0
7209  3
7210  2
7211  1
7212  0
7213  1
7214  2
7215  1
7216  0
7217  2
7218  0
7219  3
7220  0
7221  1
7222  1
7223  1
7224  2
7225  1
7226  2
7227  0
7228  2
7229  3
7230  1
7231  3
7232  3
7233  0
7234  1
7235  0
7236  2
7237  1
7238  1
7239  3
7240  0
7241  1
7242  2
7243  0
7244  0
7245  1
7246  1
7247  0
7248  1
7249  4
7250  1
7251  1
7252  1
7253  3
7254  4
7255  2
7256  1
7257  2
7258  3
7259  2
7260  1
7261  0
7262  1
7263  0
7264  1
7265  0
7266  1
7267  1
7268  0
7269  2
7270  2
7271  1
7272  5
7273  4
7274  1
7275  1
7276  0
7277  1
7278  0
7279  1
7280  2
7281  1
7282  2
7283  3
7284  1
7285  2
7286  0
7287  0
7288  0
7289  0
7290  3
7291  1
7292  3
7293  0
7294  5
7295  1
7296  3
7297  1
7298  1
7299  5
7300  2
7301  4
7302  3
7303  2
7304  1
7305  2
7306  2
7307  2
7308  4
7309  2
7310  3
7311  0
7312  1
7313  2
7314  2
7315  0
7316  1
7317  2
7318  0
7319  0
7320  0
7321  2
7322  1
7323  0
7324  2
7325  0
7326  0
7327  1
7328  2
7329  3
7330  0
7331  2
7332  0
7333  1
7334  1
7335  3
7336  2
7337  1
7338  5
7339  5
7340  0
7341  1
7342  3
7343  3
7344  2
7345  1
7346  3
7347  1
7348  0
7349  5
7350  0
7351  1
7352  1
7353  1
7354  1
7355  1
7356  1
7357  1
7358  0
7359  2
7360  2
7361  1
7362  1
7363  2
7364  2
7365  1
7366  0
7367  3
7368  0
7369  2
7370  0
7371  1
7372  0
7373  1
7374  2
7375  1
7376  1
7377  1
7378  2
7379  2
7380  1
7381  2
7382  1
7383  2
7384  3
7385  2
7386  3
7387  1
7388  0
7389  2
7390  0
7391  2
7392  2
7393  1
7394  2
7395  0
7396  3
7397  1
7398  4
7399  1
7400  2
7401  3
7402  2
7403  2
7404  2
7405  1
7406  1
7407  2
7408  0
7409  1
7410  1
7411  1
7412  4
7413  0
7414  4
7415  1
7416  1
7417  0
7418  2
7419  3
7420  2
7421  0
7422  0
7423  3
7424  1
7425  1
7426  0
7427  2
7428  1
7429  1
7430  0
7431  0
7432  1
7433  2
7434  3
7435  0
7436  1
7437  1
7438  1
7439  1
7440  1
7441  5
7442  6
7443  2
7444  3
7445  3
7446  2
7447  3
7448  1
7449  3
7450  1
7451  0
7452  1
7453  1
7454  0
7455  0
7456  3
7457  2
7458  3
7459  4
7460  0
7461  0
7462  1
7463  1
7464  0
7465  0
7466  0
7467  0
7468  1
7469  2
7470  2
7471  1
7472  1
7473  2
7474  1
7475  3
7476  0
7477  0
7478  1
7479  1
7480  3
7481  1
7482  1
7483  0
7484  0
7485  1
7486  0
7487  2
7488  0
7489  1
7490  1
7491  3
7492  2
7493  1
7494  0
7495  1
7496  0
7497  1
7498  0
7499  3
7500  1
7501  0
7502  1
7503  1
7504  1
7505  1
7506  0
7507  1
7508  0
7509  2
7510  4
7511  1
7512  4
7513  1
7514  1
7515  1
7516  2
7517  2
7518  1
7519  1
7520  2
7521  0
7522  3
7523  1
7524  1
7525  3
7526  0
7527  2
7528  2
7529  1
7530  0
7531  0
7532  1
7533  0
7534  2
7535  2
7536  1
7537  2
7538  4
7539  2
7540  3
7541  0
7542  1
7543  2
7544  3
7545  7
7546  1
7547  2
7548  4
7549  4
7550  3
7551  4
7552  2
7553  5
7554  7
7555  3
7556  6
7557  1
7558  2
7559  3
7560  3
7561  3
7562  0
7563  1
7564  2
7565  0
7566  0
7567  2
7568  1
7569  2
7570  1
7571  0
7572  5
7573  0
7574  0
7575  1
7576  2
7577  2
7578  2
7579  2
7580  1
7581  3
7582  1
7583  1
7584  0
7585  0
7586  1
7587  1
7588  1
7589  2
7590  1
7591  1
7592  3
7593  2
7594  2
7595  2
7596  0
7597  2
7598  1
7599  2
7600  0
7601  1
7602  0
7603  0
7604  1
7605  3
7606  0
7607  2
7608  1
7609  1
7610  3
7611  2
7612  2
7613  4
7614  2
7615  0
7616  2
7617  2
7618  1
7619  1
7620  1
7621  2
7622  0
7623  1
7624  2
7625  1
7626  1
7627  0
7628  3
7629  0
7630  1
7631  1
7632  0
7633  1
7634  0
7635  1
7636  0
7637  1
7638  2
7639  1
7640  2
7641  0
7642  2
7643  1
7644  2
7645  2
7646  0
7647  1
7648  1
7649  0
7650  1
7651  1
7652  0
7653  4
7654  1
7655  2
7656  0
7657  1
7658  1
7659  0
7660  1
7661  0
7662  0
7663  1
7664  1
7665  0
7666  2
7667  1
7668  2
7669  2
7670  2
7671  2
7672  2
7673  1
7674  3
7675  3
7676  3
7677  5
7678  7
7679  2
7680  3
7681  8
7682  7
7683  13
7684  16
7685  17
7686  8
7687  15
7688  19
7689  25
7690  22
7691  21
7692  11
7693  14
7694  13
7695  5
7696  4
7697  6
7698  4
7699  3
7700  3
7701  1
7702  2
7703  1
7704  0
7705  1
7706  2
7707  2
7708  3
7709  1
7710  0
7711  1
7712  0
7713  0
7714  2
7715  0
7716  1
7717  0
7718  2
7719  1
7720  0
7721  0
7722  1
7723  1
7724  2
7725  2
7726  1
7727  0
7728  0
7729  0
7730  2
7731  3
7732  0
7733  1
7734  1
7735  0
7736  2
7737  3
7738  0
7739  1
7740  0
7741  0
7742  0
7743  1
7744  0
7745  3
7746  0
7747  0
7748  1
7749  1
7750  1
7751  0
7752  1
7753  0
7754  1
7755  0
7756  2
7757  0
7758  2
7759  0
7760  0
7761  2
7762  0
7763  0
7764  2
7765  3
7766  1
7767  1
7768  0
7769  0
7770  1
7771  2
7772  1
7773  1
7774  2
7775  2
7776  0
7777  0
7778  1
7779  1
7780  1
7781  0
7782  0
7783  3
7784  0
7785  2
7786  2
7787  3
7788  1
7789  2
7790  0
7791  2
7792  1
7793  1
7794  0
7795  2
7796  0
7797  0
7798  1
7799  1
7800  2
7801  0
7802  1
7803  2
7804  3
7805  0
7806  1
7807  1
7808  2
7809  3
7810  1
7811  1
7812  2
7813  0
7814  1
7815  1
7816  1
7817  1
7818  0
7819  1
7820  3
7821  1
7822  0
7823  2
7824  0
7825  1
7826  3
7827  0
7828  1
7829  1
7830  1
7831  1
7832  0
7833  1
7834  1
7835  1
7836  1
7837  0
7838  3
7839  0
7840  0
7841  3
7842  0
7843  0
7844  5
7845  3
7846  1
7847  1
7848  0
7849  0
7850  0
7851  1
7852  1
7853  1
7854  3
7855  5
7856  2
7857  1
7858  1
7859  2
7860  0
7861  0
7862  2
7863  0
7864  1
7865  0
7866  1
7867  1
7868  0
7869  3
7870  0
7871  0
7872  2
7873  0
7874  2
7875  1
7876  1
7877  2
7878  0
7879  0
7880  1
7881  2
7882  1
7883  0
7884  1
7885  0
7886  2
7887  1
7888  1
7889  1
7890  0
7891  0
7892  0
7893  2
7894  1
7895  0
7896  1
7897  0
7898  1
7899  2
7900  0
7901  1
7902  1
7903  2
7904  0
7905  2
7906  2
7907  0
7908  0
7909  1
7910  1
7911  2
7912  1
7913  2
7914  0
7915  1
7916  1
7917  3
7918  0
7919  1
7920  1
7921  2
7922  2
7923  3
7924  0
7925  2
7926  0
7927  2
7928  0
7929  1
7930  2
7931  2
7932  1
7933  1
7934  6
7935  3
7936  0
7937  3
7938  2
7939  3
7940  4
7941  2
7942  9
7943  10
7944  2
7945  5
7946  5
7947  2
7948  1
7949  2
7950  3
7951  1
7952  1
7953  0
7954  2
7955  2
7956  1
7957  0
7958  1
7959  0
7960  2
7961  0
7962  2
7963  0
7964  3
7965  1
7966  1
7967  0
7968  1
7969  1
7970  2
7971  1
7972  0
7973  0
7974  3
7975  1
7976  1
7977  3
7978  1
7979  0
7980  0
7981  1
7982  1
7983  0
7984  1
7985  1
7986  0
7987  1
7988  2
7989  1
7990  1
7991  0
7992  0
7993  2
7994  2
7995  0
7996  2
7997  3
7998  4
7999  1
8000  0
8001  2
8002  0
8003  0
8004  0
8005  1
8006  0
8007  0
8008  1
8009  0
8010  2
8011  3
8012  1
8013  3
8014  1
8015  1
8016  0
8017  3
8018  1
8019  0
8020  4
8021  1
8022  1
8023  2
8024  1
8025  1
8026  0
8027  0
8028  2
8029  5
8030  0
8031  1
8032  0
8033  3
8034  3
8035  3
8036  2
8037  1
8038  0
8039  0
8040  1
8041  1
8042  1
8043  0
8044  1
8045  1
8046  1
8047  2
8048  0
8049  1
8050  2
8051  2
8052  1
8053  0
8054  0
8055  2
8056  2
8057  1
8058  1
8059  0
8060  1
8061  3
8062  2
8063  0
8064  3
8065  1
8066  1
8067  4
8068  0
8069  1
8070  0
8071  2
8072  2
8073  1
8074  1
8075  1
8076  0
8077  0
8078  0
8079  0
8080  0
8081  1
8082  1
8083  1
8084  2
8085  3
8086  1
8087  2
8088  0
8089  0
8090  0
8091  1
8092  0
8093  1
8094  3
8095  0
8096  2
8097  1
8098  0
8099  2
8100  2
8101  1
8102  1
8103  0
8104  1
8105  0
8106  0
8107  2
8108  3
8109  2
8110  0
8111  0
8112  0
8113  0
8114  0
8115  2
8116  0
8117  0
8118  4
8119  3
8120  2
8121  2
8122  0
8123  0
8124  0
8125  3
8126  1
8127  0
8128  0
8129  1
8130  0
8131  1
8132  0
8133  0
8134  0
8135  1
8136  2
8137  1
8138  1
8139  2
8140  1
8141  2
8142  2
8143  0
8144  0
8145  1
8146  2
8147  0
8148  0
8149  0
8150  0
8151  1
8152  3
8153  1
8154  1
8155  1
8156  3
8157  1
8158  2
8159  0
8160  1
8161  0
8162  1
8163  2
8164  1
8165  1
8166  5
8167  5
8168  3
8169  5
8170  3
8171  1
8172  2
8173  7
8174  3
8175  3
8176  0
8177  1
8178  2
8179  2
8180  2
8181  1
8182  2
8183  0
8184  0
8185  1
8186  2
8187  0
8188  0
8189  0
8190  0
8191  0
