0  440
1  0
2  0
3  0
4  0
5  0
6  0
7  0
8  0
9  0
10  0
11  0
12  0
13  0
14  0
15  0
16  0
17  0
18  0
19  0
20  0
21  0
22  0
23  0
24  0
25  0
26  0
27  0
28  0
29  0
30  0
31  0
32  0
33  0
34  0
35  0
36  0
37  0
38  0
39  0
40  0
41  0
42  0
43  0
44  0
45  0
46  0
47  0
48  0
49  0
50  0
51  0
52  0
53  0
54  0
55  0
56  0
57  0
58  0
59  0
60  0
61  0
62  0
63  0
64  0
65  0
66  0
67  0
68  0
69  0
70  0
71  0
72  0
73  0
74  0
75  0
76  0
77  0
78  0
79  0
80  0
81  0
82  0
83  0
84  0
85  0
86  0
87  0
88  0
89  0
90  0
91  0
92  0
93  0
94  0
95  0
96  0
97  0
98  0
99  0
100  0
101  0
102  0
103  0
104  0
105  0
106  0
107  0
108  0
109  0
110  0
111  0
112  0
113  0
114  0
115  0
116  0
117  0
118  0
119  0
120  0
121  0
122  0
123  0
124  0
125  0
126  0
127  0
128  0
129  4
130  26
131  43
132  33
133  29
134  18
135  31
136  33
137  27
138  27
139  31
140  33
141  31
142  32
143  34
144  24
145  24
146  39
147  27
148  34
149  24
150  40
151  32
152  32
153  37
154  31
155  36
156  35
157  29
158  28
159  28
160  32
161  30
162  43
163  26
164  31
165  42
166  45
167  36
168  26
169  27
170  36
171  38
172  45
173  37
174  41
175  38
176  39
177  26
178  37
179  35
180  39
181  34
182  47
183  25
184  39
185  30
186  45
187  51
188  38
189  46
190  40
191  36
192  41
193  41
194  37
195  45
196  45
197  44
198  32
199  35
200  32
201  47
202  42
203  40
204  50
205  40
206  39
207  39
208  48
209  40
210  52
211  46
212  41
213  38
214  42
215  50
216  52
217  42
218  43
219  39
220  48
221  48
222  44
223  54
224  53
225  38
226  39
227  54
228  51
229  55
230  36
231  39
232  37
233  47
234  47
235  46
236  45
237  50
238  49
239  57
240  56
241  48
242  46
243  36
244  46
245  28
246  45
247  55
248  48
249  44
250  54
251  45
252  45
253  44
254  43
255  40
256  49
257  40
258  54
259  52
260  58
261  39
262  51
263  45
264  43
265  42
266  51
267  51
268  57
269  41
270  55
271  57
272  58
273  47
274  57
275  53
276  41
277  52
278  34
279  50
280  60
281  51
282  49
283  44
284  43
285  42
286  46
287  51
288  42
289  44
290  55
291  52
292  43
293  44
294  39
295  38
296  54
297  46
298  56
299  46
300  51
301  32
302  60
303  46
304  42
305  48
306  35
307  56
308  40
309  49
310  46
311  55
312  44
313  53
314  48
315  57
316  62
317  23
318  39
319  32
320  52
321  37
322  49
323  47
324  52
325  38
326  35
327  44
328  41
329  42
330  41
331  49
332  49
333  44
334  38
335  40
336  48
337  39
338  52
339  60
340  46
341  37
342  51
343  56
344  52
345  41
346  57
347  40
348  46
349  46
350  40
351  47
352  42
353  38
354  37
355  53
356  41
357  46
358  46
359  41
360  43
361  45
362  39
363  49
364  50
365  39
366  36
367  51
368  43
369  33
370  49
371  55
372  49
373  34
374  44
375  28
376  44
377  41
378  36
379  45
380  41
381  39
382  44
383  34
384  55
385  49
386  32
387  54
388  34
389  53
390  34
391  40
392  27
393  34
394  42
395  44
396  47
397  41
398  40
399  36
400  29
401  46
402  46
403  37
404  46
405  37
406  37
407  42
408  36
409  43
410  46
411  42
412  42
413  54
414  37
415  48
416  48
417  43
418  42
419  32
420  47
421  47
422  37
423  37
424  31
425  30
426  39
427  33
428  45
429  46
430  40
431  37
432  31
433  47
434  30
435  35
436  39
437  39
438  50
439  32
440  46
441  29
442  22
443  31
444  35
445  38
446  27
447  27
448  35
449  46
450  41
451  26
452  27
453  35
454  36
455  31
456  35
457  25
458  36
459  34
460  33
461  36
462  29
463  39
464  37
465  29
466  28
467  25
468  31
469  38
470  36
471  40
472  43
473  38
474  30
475  29
476  30
477  30
478  39
479  27
480  29
481  30
482  36
483  39
484  33
485  39
486  29
487  28
488  41
489  30
490  32
491  26
492  31
493  42
494  29
495  19
496  25
497  34
498  32
499  25
500  36
501  42
502  26
503  27
504  21
505  32
506  24
507  32
508  30
509  23
510  26
511  28
512  35
513  28
514  32
515  35
516  27
517  26
518  29
519  36
520  36
521  23
522  34
523  34
524  25
525  34
526  24
527  28
528  22
529  24
530  32
531  27
532  28
533  22
534  35
535  28
536  31
537  30
538  28
539  35
540  30
541  32
542  30
543  35
544  21
545  27
546  29
547  26
548  24
549  26
550  40
551  27
552  24
553  19
554  41
555  30
556  38
557  25
558  27
559  26
560  27
561  24
562  27
563  24
564  23
565  29
566  26
567  24
568  31
569  22
570  19
571  24
572  27
573  21
574  30
575  27
576  22
577  20
578  24
579  30
580  19
581  35
582  28
583  22
584  25
585  21
586  17
587  21
588  33
589  30
590  24
591  31
592  31
593  26
594  32
595  25
596  20
597  30
598  24
599  30
600  19
601  26
602  25
603  29
604  22
605  14
606  24
607  28
608  21
609  15
610  26
611  24
612  25
613  26
614  27
615  21
616  21
617  21
618  19
619  20
620  20
621  24
622  20
623  31
624  16
625  25
626  22
627  29
628  25
629  27
630  21
631  29
632  21
633  23
634  20
635  23
636  27
637  22
638  32
639  25
640  24
641  24
642  29
643  29
644  24
645  27
646  15
647  15
648  17
649  23
650  19
651  19
652  20
653  22
654  20
655  20
656  21
657  24
658  22
659  19
660  19
661  28
662  26
663  33
664  24
665  32
666  19
667  27
668  24
669  20
670  24
671  24
672  19
673  21
674  20
675  31
676  23
677  25
678  28
679  26
680  31
681  27
682  41
683  22
684  16
685  23
686  19
687  18
688  16
689  17
690  18
691  30
692  19
693  22
694  34
695  26
696  16
697  20
698  11
699  25
700  19
701  17
702  23
703  17
704  13
705  19
706  21
707  16
708  28
709  25
710  13
711  23
712  19
713  22
714  21
715  23
716  15
717  15
718  21
719  14
720  16
721  25
722  17
723  14
724  23
725  21
726  20
727  21
728  17
729  25
730  15
731  12
732  16
733  15
734  17
735  11
736  24
737  14
738  18
739  16
740  18
741  15
742  20
743  16
744  13
745  16
746  15
747  23
748  16
749  24
750  24
751  26
752  23
753  21
754  15
755  18
756  14
757  18
758  17
759  19
760  17
761  18
762  19
763  14
764  26
765  17
766  15
767  17
768  20
769  22
770  16
771  14
772  20
773  18
774  18
775  18
776  17
777  18
778  13
779  18
780  22
781  15
782  15
783  17
784  21
785  17
786  24
787  22
788  14
789  18
790  16
791  11
792  13
793  18
794  17
795  17
796  22
797  17
798  16
799  15
800  23
801  17
802  19
803  18
804  15
805  16
806  25
807  11
808  18
809  19
810  6
811  16
812  18
813  11
814  7
815  14
816  18
817  9
818  14
819  23
820  13
821  19
822  9
823  17
824  14
825  15
826  16
827  18
828  15
829  12
830  17
831  16
832  13
833  15
834  19
835  17
836  6
837  16
838  14
839  15
840  18
841  12
842  7
843  11
844  17
845  23
846  17
847  12
848  18
849  20
850  12
851  18
852  11
853  23
854  19
855  19
856  26
857  22
858  20
859  18
860  17
861  18
862  13
863  10
864  19
865  20
866  21
867  8
868  21
869  13
870  11
871  17
872  10
873  10
874  22
875  11
876  16
877  19
878  19
879  19
880  11
881  10
882  7
883  16
884  7
885  19
886  17
887  7
888  13
889  16
890  10
891  8
892  15
893  13
894  18
895  14
896  18
897  14
898  9
899  18
900  11
901  15
902  17
903  19
904  14
905  13
906  23
907  15
908  13
909  21
910  14
911  12
912  18
913  18
914  13
915  18
916  18
917  15
918  8
919  20
920  10
921  9
922  11
923  21
924  16
925  8
926  4
927  12
928  10
929  8
930  20
931  8
932  11
933  13
934  13
935  12
936  10
937  14
938  11
939  18
940  14
941  10
942  12
943  10
944  18
945  17
946  12
947  20
948  18
949  11
950  14
951  21
952  19
953  13
954  7
955  20
956  13
957  10
958  15
959  11
960  16
961  6
962  9
963  18
964  18
965  12
966  11
967  12
968  13
969  18
970  10
971  19
972  11
973  11
974  13
975  7
976  15
977  10
978  14
979  8
980  15
981  4
982  11
983  15
984  14
985  27
986  12
987  9
988  9
989  15
990  10
991  17
992  20
993  6
994  11
995  13
996  10
997  17
998  13
999  10
1000  13
1001  8
1002  12
1003  11
1004  11
1005  10
1006  13
1007  9
1008  15
1009  7
1010  11
1011  8
1012  12
1013  18
1014  11
1015  12
1016  12
1017  7
1018  11
1019  10
1020  16
1021  17
1022  12
1023  19
1024  16
1025  20
1026  21
1027  23
1028  21
1029  21
1030  16
1031  13
1032  10
1033  17
1034  16
1035  11
1036  13
1037  17
1038  16
1039  10
1040  14
1041  9
1042  17
1043  19
1044  10
1045  11
1046  11
1047  12
1048  15
1049  13
1050  13
1051  7
1052  6
1053  9
1054  8
1055  7
1056  9
1057  8
1058  14
1059  12
1060  13
1061  9
1062  10
1063  10
1064  13
1065  11
1066  8
1067  10
1068  15
1069  13
1070  19
1071  12
1072  9
1073  18
1074  11
1075  4
1076  10
1077  14
1078  20
1079  14
1080  8
1081  10
1082  13
1083  8
1084  9
1085  7
1086  11
1087  12
1088  15
1089  10
1090  9
1091  9
1092  13
1093  11
1094  8
1095  11
1096  13
1097  10
1098  9
1099  11
1100  10
1101  19
1102  12
1103  13
1104  8
1105  15
1106  9
1107  11
1108  6
1109  10
1110  14
1111  8
1112  6
1113  8
1114  11
1115  8
1116  6
1117  8
1118  11
1119  8
1120  8
1121  6
1122  10
1123  11
1124  8
1125  7
1126  11
1127  11
1128  12
1129  15
1130  10
1131  6
1132  14
1133  9
1134  8
1135  15
1136  9
1137  11
1138  10
1139  10
1140  12
1141  8
1142  8
1143  15
1144  10
1145  8
1146  9
1147  6
1148  6
1149  12
1150  16
1151  11
1152  12
1153  11
1154  12
1155  9
1156  17
1157  8
1158  3
1159  14
1160  16
1161  4
1162  7
1163  8
1164  10
1165  14
1166  10
1167  11
1168  8
1169  12
1170  9
1171  15
1172  14
1173  4
1174  10
1175  7
1176  15
1177  5
1178  3
1179  9
1180  11
1181  13
1182  15
1183  14
1184  10
1185  13
1186  7
1187  19
1188  12
1189  7
1190  11
1191  8
1192  10
1193  13
1194  10
1195  11
1196  15
1197  6
1198  7
1199  6
1200  7
1201  9
1202  8
1203  9
1204  6
1205  7
1206  9
1207  7
1208  8
1209  5
1210  12
1211  9
1212  10
1213  8
1214  6
1215  6
1216  9
1217  12
1218  5
1219  13
1220  12
1221  9
1222  12
1223  11
1224  15
1225  6
1226  17
1227  8
1228  12
1229  8
1230  14
1231  11
1232  13
1233  7
1234  9
1235  7
1236  5
1237  9
1238  15
1239  7
1240  6
1241  10
1242  9
1243  6
1244  10
1245  11
1246  8
1247  10
1248  5
1249  7
1250  5
1251  11
1252  10
1253  14
1254  8
1255  8
1256  6
1257  7
1258  9
1259  11
1260  9
1261  4
1262  10
1263  7
1264  12
1265  8
1266  8
1267  9
1268  6
1269  11
1270  10
1271  8
1272  7
1273  7
1274  14
1275  9
1276  12
1277  8
1278  6
1279  6
1280  8
1281  6
1282  7
1283  5
1284  10
1285  11
1286  12
1287  12
1288  13
1289  9
1290  11
1291  9
1292  12
1293  8
1294  7
1295  6
1296  6
1297  3
1298  11
1299  9
1300  10
1301  7
1302  8
1303  8
1304  11
1305  13
1306  4
1307  6
1308  9
1309  11
1310  6
1311  10
1312  4
1313  10
1314  4
1315  8
1316  12
1317  11
1318  14
1319  14
1320  4
1321  13
1322  8
1323  9
1324  11
1325  11
1326  7
1327  10
1328  9
1329  10
1330  6
1331  12
1332  9
1333  4
1334  8
1335  7
1336  4
1337  10
1338  8
1339  7
1340  8
1341  8
1342  11
1343  8
1344  10
1345  13
1346  13
1347  5
1348  14
1349  11
1350  12
1351  6
1352  5
1353  14
1354  10
1355  12
1356  12
1357  12
1358  8
1359  3
1360  12
1361  9
1362  13
1363  8
1364  8
1365  11
1366  18
1367  9
1368  12
1369  8
1370  9
1371  6
1372  10
1373  8
1374  3
1375  13
1376  11
1377  11
1378  14
1379  11
1380  11
1381  6
1382  9
1383  12
1384  12
1385  13
1386  7
1387  12
1388  10
1389  6
1390  9
1391  9
1392  6
1393  7
1394  5
1395  8
1396  8
1397  13
1398  8
1399  7
1400  9
1401  7
1402  9
1403  12
1404  15
1405  6
1406  9
1407  10
1408  7
1409  13
1410  13
1411  13
1412  14
1413  9
1414  10
1415  8
1416  4
1417  7
1418  3
1419  9
1420  13
1421  10
1422  8
1423  5
1424  8
1425  7
1426  13
1427  11
1428  5
1429  4
1430  14
1431  7
1432  8
1433  10
1434  10
1435  5
1436  10
1437  7
1438  11
1439  4
1440  7
1441  10
1442  8
1443  7
1444  11
1445  12
1446  10
1447  13
1448  7
1449  5
1450  11
1451  8
1452  7
1453  12
1454  13
1455  6
1456  12
1457  6
1458  5
1459  9
1460  4
1461  13
1462  10
1463  7
1464  6
1465  8
1466  10
1467  12
1468  5
1469  15
1470  7
1471  7
1472  8
1473  11
1474  7
1475  5
1476  11
1477  6
1478  9
1479  11
1480  6
1481  7
1482  14
1483  10
1484  14
1485  13
1486  4
1487  15
1488  10
1489  7
1490  13
1491  5
1492  12
1493  15
1494  9
1495  12
1496  10
1497  10
1498  6
1499  5
1500  11
1501  8
1502  10
1503  10
1504  12
1505  8
1506  11
1507  6
1508  12
1509  17
1510  19
1511  14
1512  16
1513  18
1514  14
1515  14
1516  12
1517  19
1518  4
1519  8
1520  4
1521  13
1522  17
1523  7
1524  8
1525  6
1526  6
1527  4
1528  9
1529  8
1530  13
1531  7
1532  8
1533  5
1534  5
1535  11
1536  3
1537  10
1538  11
1539  7
1540  10
1541  9
1542  6
1543  9
1544  7
1545  4
1546  8
1547  7
1548  8
1549  8
1550  9
1551  9
1552  8
1553  17
1554  8
1555  6
1556  10
1557  6
1558  8
1559  3
1560  9
1561  12
1562  11
1563  8
1564  10
1565  10
1566  5
1567  9
1568  4
1569  12
1570  8
1571  10
1572  5
1573  18
1574  4
1575  5
1576  11
1577  8
1578  13
1579  6
1580  4
1581  7
1582  9
1583  3
1584  8
1585  10
1586  8
1587  6
1588  9
1589  9
1590  18
1591  7
1592  6
1593  9
1594  10
1595  6
1596  5
1597  3
1598  8
1599  7
1600  5
1601  9
1602  5
1603  6
1604  7
1605  3
1606  5
1607  13
1608  12
1609  7
1610  9
1611  4
1612  11
1613  6
1614  8
1615  2
1616  6
1617  7
1618  6
1619  13
1620  5
1621  8
1622  13
1623  10
1624  3
1625  7
1626  6
1627  11
1628  8
1629  7
1630  8
1631  8
1632  7
1633  6
1634  5
1635  8
1636  5
1637  7
1638  13
1639  8
1640  7
1641  7
1642  7
1643  9
1644  9
1645  6
1646  7
1647  4
1648  4
1649  13
1650  7
1651  15
1652  16
1653  8
1654  8
1655  5
1656  10
1657  7
1658  4
1659  7
1660  9
1661  7
1662  9
1663  7
1664  9
1665  6
1666  10
1667  11
1668  7
1669  11
1670  6
1671  5
1672  10
1673  7
1674  6
1675  6
1676  8
1677  7
1678  6
1679  9
1680  9
1681  4
1682  14
1683  6
1684  4
1685  9
1686  5
1687  14
1688  9
1689  8
1690  3
1691  9
1692  8
1693  11
1694  3
1695  7
1696  5
1697  7
1698  9
1699  7
1700  5
1701  6
1702  5
1703  6
1704  7
1705  12
1706  5
1707  9
1708  13
1709  8
1710  5
1711  7
1712  13
1713  6
1714  9
1715  8
1716  14
1717  10
1718  4
1719  10
1720  9
1721  13
1722  11
1723  13
1724  7
1725  6
1726  10
1727  12
1728  11
1729  11
1730  11
1731  9
1732  17
1733  8
1734  7
1735  8
1736  11
1737  4
1738  10
1739  9
1740  10
1741  6
1742  6
1743  8
1744  11
1745  4
1746  13
1747  8
1748  5
1749  4
1750  10
1751  2
1752  12
1753  9
1754  5
1755  3
1756  12
1757  9
1758  6
1759  6
1760  7
1761  8
1762  9
1763  7
1764  5
1765  4
1766  7
1767  9
1768  11
1769  5
1770  7
1771  4
1772  8
1773  6
1774  8
1775  7
1776  8
1777  8
1778  8
1779  7
1780  10
1781  5
1782  9
1783  14
1784  3
1785  7
1786  9
1787  2
1788  5
1789  5
1790  10
1791  6
1792  10
1793  5
1794  8
1795  10
1796  9
1797  6
1798  11
1799  8
1800  8
1801  8
1802  6
1803  8
1804  7
1805  10
1806  9
1807  7
1808  8
1809  13
1810  11
1811  18
1812  15
1813  13
1814  14
1815  9
1816  9
1817  7
1818  9
1819  8
1820  7
1821  11
1822  2
1823  6
1824  7
1825  8
1826  8
1827  10
1828  4
1829  10
1830  6
1831  3
1832  11
1833  11
1834  9
1835  10
1836  6
1837  7
1838  5
1839  10
1840  4
1841  8
1842  2
1843  4
1844  9
1845  6
1846  12
1847  12
1848  8
1849  8
1850  8
1851  11
1852  5
1853  9
1854  8
1855  4
1856  8
1857  11
1858  4
1859  6
1860  16
1861  7
1862  12
1863  6
1864  6
1865  6
1866  5
1867  8
1868  7
1869  7
1870  12
1871  4
1872  5
1873  5
1874  5
1875  3
1876  3
1877  7
1878  7
1879  8
1880  6
1881  8
1882  10
1883  5
1884  4
1885  1
1886  6
1887  8
1888  5
1889  10
1890  12
1891  6
1892  11
1893  11
1894  7
1895  12
1896  5
1897  8
1898  7
1899  6
1900  8
1901  8
1902  11
1903  7
1904  3
1905  9
1906  4
1907  7
1908  11
1909  5
1910  8
1911  14
1912  12
1913  9
1914  5
1915  10
1916  11
1917  10
1918  5
1919  9
1920  13
1921  8
1922  10
1923  10
1924  10
1925  6
1926  6
1927  4
1928  7
1929  4
1930  6
1931  7
1932  4
1933  10
1934  10
1935  5
1936  10
1937  5
1938  6
1939  9
1940  8
1941  8
1942  11
1943  9
1944  11
1945  4
1946  6
1947  11
1948  4
1949  6
1950  1
1951  4
1952  5
1953  8
1954  5
1955  8
1956  8
1957  11
1958  9
1959  11
1960  4
1961  16
1962  10
1963  6
1964  7
1965  12
1966  11
1967  6
1968  7
1969  4
1970  6
1971  8
1972  4
1973  10
1974  4
1975  0
1976  14
1977  14
1978  6
1979  7
1980  6
1981  6
1982  4
1983  8
1984  9
1985  7
1986  8
1987  8
1988  4
1989  7
1990  6
1991  6
1992  7
1993  9
1994  6
1995  9
1996  8
1997  16
1998  6
1999  6
2000  8
2001  9
2002  5
2003  4
2004  2
2005  6
2006  6
2007  8
2008  10
2009  11
2010  4
2011  6
2012  5
2013  9
2014  7
2015  5
2016  6
2017  8
2018  13
2019  6
2020  14
2021  8
2022  4
2023  15
2024  7
2025  5
2026  3
2027  4
2028  6
2029  7
2030  9
2031  8
2032  5
2033  12
2034  5
2035  5
2036  4
2037  6
2038  6
2039  3
2040  5
2041  8
2042  11
2043  7
2044  5
2045  7
2046  3
2047  5
2048  7
2049  3
2050  4
2051  6
2052  6
2053  9
2054  10
2055  12
2056  8
2057  8
2058  9
2059  3
2060  4
2061  14
2062  4
2063  7
2064  6
2065  5
2066  4
2067  6
2068  12
2069  9
2070  6
2071  5
2072  7
2073  7
2074  5
2075  9
2076  4
2077  7
2078  12
2079  5
2080  5
2081  7
2082  9
2083  7
2084  7
2085  9
2086  5
2087  7
2088  5
2089  6
2090  11
2091  3
2092  6
2093  7
2094  5
2095  8
2096  7
2097  6
2098  6
2099  9
2100  10
2101  5
2102  8
2103  9
2104  7
2105  2
2106  3
2107  10
2108  3
2109  4
2110  4
2111  14
2112  6
2113  7
2114  5
2115  11
2116  7
2117  6
2118  7
2119  3
2120  9
2121  5
2122  3
2123  7
2124  5
2125  8
2126  7
2127  6
2128  11
2129  3
2130  4
2131  8
2132  4
2133  7
2134  11
2135  4
2136  10
2137  8
2138  6
2139  7
2140  12
2141  11
2142  7
2143  5
2144  6
2145  11
2146  9
2147  7
2148  10
2149  6
2150  8
2151  8
2152  4
2153  6
2154  6
2155  7
2156  10
2157  4
2158  9
2159  6
2160  8
2161  8
2162  7
2163  4
2164  12
2165  13
2166  10
2167  12
2168  10
2169  5
2170  11
2171  7
2172  12
2173  8
2174  3
2175  13
2176  9
2177  5
2178  10
2179  9
2180  6
2181  7
2182  7
2183  5
2184  4
2185  7
2186  5
2187  9
2188  6
2189  7
2190  11
2191  5
2192  7
2193  6
2194  9
2195  12
2196  7
2197  10
2198  11
2199  7
2200  7
2201  7
2202  12
2203  6
2204  11
2205  13
2206  10
2207  5
2208  7
2209  14
2210  7
2211  7
2212  2
2213  10
2214  6
2215  7
2216  11
2217  6
2218  6
2219  8
2220  8
2221  5
2222  5
2223  7
2224  9
2225  5
2226  7
2227  6
2228  6
2229  1
2230  8
2231  8
2232  4
2233  3
2234  8
2235  4
2236  10
2237  1
2238  7
2239  10
2240  12
2241  6
2242  1
2243  7
2244  7
2245  8
2246  7
2247  5
2248  14
2249  7
2250  10
2251  9
2252  5
2253  5
2254  9
2255  5
2256  7
2257  7
2258  10
2259  11
2260  4
2261  11
2262  8
2263  9
2264  9
2265  15
2266  2
2267  9
2268  7
2269  5
2270  5
2271  9
2272  8
2273  8
2274  4
2275  8
2276  10
2277  5
2278  10
2279  6
2280  6
2281  10
2282  11
2283  7
2284  11
2285  8
2286  12
2287  10
2288  6
2289  6
2290  6
2291  7
2292  8
2293  8
2294  12
2295  11
2296  6
2297  7
2298  9
2299  7
2300  7
2301  9
2302  12
2303  13
2304  9
2305  7
2306  5
2307  7
2308  8
2309  5
2310  10
2311  8
2312  7
2313  13
2314  14
2315  8
2316  8
2317  11
2318  4
2319  6
2320  13
2321  9
2322  8
2323  7
2324  7
2325  5
2326  8
2327  11
2328  4
2329  5
2330  13
2331  10
2332  9
2333  8
2334  8
2335  5
2336  10
2337  7
2338  6
2339  11
2340  8
2341  9
2342  15
2343  7
2344  17
2345  7
2346  8
2347  12
2348  7
2349  8
2350  3
2351  3
2352  3
2353  8
2354  8
2355  8
2356  7
2357  8
2358  5
2359  7
2360  8
2361  13
2362  4
2363  4
2364  8
2365  6
2366  4
2367  9
2368  10
2369  19
2370  3
2371  11
2372  12
2373  5
2374  22
2375  6
2376  11
2377  9
2378  9
2379  4
2380  11
2381  10
2382  9
2383  8
2384  9
2385  4
2386  10
2387  8
2388  5
2389  7
2390  8
2391  5
2392  10
2393  10
2394  13
2395  8
2396  6
2397  5
2398  1
2399  7
2400  13
2401  9
2402  10
2403  4
2404  12
2405  5
2406  13
2407  12
2408  11
2409  6
2410  5
2411  6
2412  10
2413  9
2414  7
2415  9
2416  8
2417  2
2418  10
2419  6
2420  6
2421  4
2422  10
2423  12
2424  10
2425  8
2426  10
2427  17
2428  11
2429  8
2430  7
2431  2
2432  9
2433  9
2434  5
2435  7
2436  5
2437  7
2438  6
2439  7
2440  6
2441  7
2442  8
2443  12
2444  8
2445  10
2446  11
2447  3
2448  5
2449  12
2450  10
2451  7
2452  4
2453  3
2454  9
2455  7
2456  6
2457  5
2458  10
2459  5
2460  11
2461  12
2462  10
2463  11
2464  11
2465  6
2466  8
2467  14
2468  8
2469  9
2470  6
2471  7
2472  5
2473  12
2474  8
2475  2
2476  8
2477  7
2478  10
2479  8
2480  8
2481  15
2482  14
2483  10
2484  9
2485  8
2486  6
2487  7
2488  11
2489  5
2490  7
2491  6
2492  12
2493  7
2494  8
2495  7
2496  13
2497  6
2498  7
2499  8
2500  8
2501  11
2502  8
2503  8
2504  12
2505  7
2506  8
2507  7
2508  8
2509  4
2510  14
2511  11
2512  9
2513  5
2514  5
2515  7
2516  5
2517  7
2518  6
2519  9
2520  7
2521  10
2522  11
2523  5
2524  13
2525  9
2526  9
2527  4
2528  6
2529  3
2530  8
2531  13
2532  11
2533  14
2534  10
2535  4
2536  8
2537  7
2538  6
2539  6
2540  8
2541  6
2542  18
2543  4
2544  8
2545  5
2546  6
2547  7
2548  11
2549  8
2550  8
2551  4
2552  13
2553  12
2554  4
2555  11
2556  3
2557  7
2558  6
2559  8
2560  8
2561  6
2562  9
2563  9
2564  10
2565  8
2566  4
2567  8
2568  10
2569  4
2570  9
2571  7
2572  8
2573  10
2574  10
2575  11
2576  10
2577  10
2578  10
2579  8
2580  9
2581  15
2582  3
2583  12
2584  9
2585  9
2586  8
2587  8
2588  6
2589  6
2590  10
2591  10
2592  5
2593  5
2594  8
2595  10
2596  5
2597  6
2598  11
2599  8
2600  8
2601  10
2602  7
2603  6
2604  8
2605  6
2606  11
2607  8
2608  10
2609  10
2610  11
2611  10
2612  7
2613  10
2614  14
2615  10
2616  17
2617  6
2618  14
2619  13
2620  13
2621  10
2622  9
2623  10
2624  7
2625  8
2626  13
2627  4
2628  5
2629  15
2630  11
2631  10
2632  8
2633  8
2634  6
2635  9
2636  12
2637  11
2638  13
2639  7
2640  11
2641  9
2642  8
2643  11
2644  8
2645  14
2646  17
2647  14
2648  6
2649  6
2650  11
2651  6
2652  7
2653  5
2654  9
2655  6
2656  12
2657  9
2658  8
2659  7
2660  6
2661  15
2662  11
2663  7
2664  15
2665  14
2666  13
2667  8
2668  11
2669  3
2670  6
2671  9
2672  9
2673  8
2674  9
2675  7
2676  10
2677  17
2678  9
2679  7
2680  7
2681  5
2682  8
2683  9
2684  6
2685  11
2686  15
2687  8
2688  7
2689  8
2690  9
2691  9
2692  11
2693  12
2694  10
2695  7
2696  10
2697  9
2698  10
2699  8
2700  10
2701  8
2702  11
2703  9
2704  7
2705  7
2706  17
2707  10
2708  16
2709  10
2710  9
2711  12
2712  13
2713  12
2714  11
2715  9
2716  13
2717  10
2718  16
2719  12
2720  12
2721  5
2722  13
2723  12
2724  12
2725  7
2726  6
2727  12
2728  9
2729  11
2730  7
2731  13
2732  10
2733  15
2734  10
2735  14
2736  10
2737  12
2738  12
2739  8
2740  14
2741  12
2742  10
2743  11
2744  8
2745  10
2746  5
2747  10
2748  14
2749  6
2750  5
2751  6
2752  9
2753  6
2754  12
2755  11
2756  7
2757  11
2758  6
2759  13
2760  9
2761  13
2762  16
2763  11
2764  11
2765  5
2766  14
2767  8
2768  11
2769  9
2770  11
2771  9
2772  7
2773  12
2774  16
2775  10
2776  15
2777  7
2778  4
2779  14
2780  9
2781  9
2782  14
2783  6
2784  11
2785  11
2786  6
2787  9
2788  6
2789  12
2790  14
2791  11
2792  10
2793  10
2794  11
2795  8
2796  11
2797  13
2798  12
2799  10
2800  14
2801  12
2802  10
2803  9
2804  16
2805  7
2806  14
2807  8
2808  4
2809  13
2810  14
2811  13
2812  15
2813  11
2814  13
2815  15
2816  9
2817  10
2818  10
2819  7
2820  11
2821  9
2822  4
2823  10
2824  11
2825  7
2826  14
2827  13
2828  12
2829  11
2830  6
2831  10
2832  9
2833  11
2834  15
2835  12
2836  15
2837  10
2838  11
2839  16
2840  9
2841  8
2842  12
2843  15
2844  4
2845  13
2846  17
2847  13
2848  6
2849  12
2850  9
2851  10
2852  9
2853  16
2854  9
2855  14
2856  12
2857  3
2858  14
2859  9
2860  6
2861  14
2862  12
2863  13
2864  9
2865  13
2866  9
2867  11
2868  13
2869  10
2870  13
2871  14
2872  9
2873  13
2874  11
2875  4
2876  6
2877  5
2878  10
2879  12
2880  10
2881  8
2882  18
2883  11
2884  12
2885  14
2886  13
2887  8
2888  12
2889  12
2890  11
2891  13
2892  9
2893  10
2894  15
2895  14
2896  8
2897  8
2898  8
2899  12
2900  7
2901  5
2902  6
2903  14
2904  11
2905  7
2906  14
2907  8
2908  6
2909  8
2910  11
2911  15
2912  7
2913  11
2914  10
2915  11
2916  13
2917  11
2918  8
2919  9
2920  9
2921  7
2922  5
2923  8
2924  6
2925  8
2926  9
2927  11
2928  9
2929  5
2930  6
2931  7
2932  12
2933  12
2934  10
2935  10
2936  5
2937  11
2938  5
2939  7
2940  9
2941  8
2942  8
2943  11
2944  8
2945  2
2946  8
2947  9
2948  3
2949  5
2950  8
2951  11
2952  9
2953  9
2954  9
2955  9
2956  3
2957  7
2958  9
2959  8
2960  12
2961  9
2962  5
2963  9
2964  8
2965  8
2966  2
2967  5
2968  6
2969  12
2970  12
2971  7
2972  7
2973  7
2974  5
2975  5
2976  9
2977  9
2978  9
2979  10
2980  12
2981  7
2982  6
2983  10
2984  13
2985  8
2986  4
2987  9
2988  13
2989  9
2990  3
2991  8
2992  13
2993  6
2994  7
2995  14
2996  12
2997  8
2998  9
2999  10
3000  8
3001  11
3002  11
3003  15
3004  13
3005  8
3006  13
3007  12
3008  7
3009  10
3010  9
3011  13
3012  13
3013  5
3014  12
3015  4
3016  12
3017  4
3018  7
3019  9
3020  8
3021  9
3022  9
3023  6
3024  11
3025  10
3026  7
3027  9
3028  12
3029  9
3030  6
3031  14
3032  3
3033  11
3034  8
3035  7
3036  6
3037  3
3038  9
3039  6
3040  7
3041  6
3042  7
3043  10
3044  5
3045  8
3046  6
3047  5
3048  9
3049  6
3050  6
3051  6
3052  9
3053  7
3054  2
3055  6
3056  7
3057  13
3058  14
3059  6
3060  11
3061  13
3062  6
3063  3
3064  7
3065  6
3066  6
3067  6
3068  8
3069  9
3070  9
3071  4
3072  6
3073  10
3074  9
3075  10
3076  8
3077  10
3078  5
3079  9
3080  9
3081  3
3082  10
3083  4
3084  5
3085  2
3086  8
3087  6
3088  6
3089  7
3090  4
3091  7
3092  9
3093  8
3094  10
3095  9
3096  9
3097  8
3098  8
3099  5
3100  8
3101  11
3102  11
3103  6
3104  7
3105  3
3106  6
3107  9
3108  4
3109  6
3110  2
3111  6
3112  4
3113  7
3114  5
3115  3
3116  8
3117  11
3118  7
3119  12
3120  6
3121  5
3122  5
3123  7
3124  6
3125  5
3126  8
3127  9
3128  10
3129  10
3130  8
3131  9
3132  8
3133  6
3134  4
3135  11
3136  11
3137  4
3138  8
3139  4
3140  7
3141  7
3142  6
3143  8
3144  9
3145  6
3146  6
3147  9
3148  7
3149  7
3150  12
3151  14
3152  8
3153  1
3154  9
3155  5
3156  7
3157  5
3158  5
3159  9
3160  13
3161  6
3162  4
3163  3
3164  8
3165  6
3166  10
3167  6
3168  9
3169  4
3170  5
3171  11
3172  11
3173  5
3174  9
3175  5
3176  8
3177  6
3178  8
3179  7
3180  11
3181  11
3182  7
3183  7
3184  4
3185  11
3186  11
3187  6
3188  8
3189  5
3190  6
3191  7
3192  7
3193  13
3194  4
3195  6
3196  11
3197  7
3198  3
3199  8
3200  10
3201  9
3202  7
3203  8
3204  4
3205  8
3206  7
3207  7
3208  8
3209  5
3210  5
3211  4
3212  4
3213  7
3214  5
3215  6
3216  9
3217  5
3218  5
3219  6
3220  11
3221  6
3222  7
3223  6
3224  6
3225  4
3226  8
3227  6
3228  7
3229  5
3230  2
3231  7
3232  10
3233  7
3234  1
3235  9
3236  3
3237  9
3238  14
3239  5
3240  8
3241  2
3242  8
3243  6
3244  5
3245  7
3246  2
3247  3
3248  8
3249  10
3250  7
3251  5
3252  7
3253  10
3254  10
3255  3
3256  6
3257  4
3258  7
3259  5
3260  11
3261  13
3262  6
3263  6
3264  6
3265  4
3266  6
3267  5
3268  7
3269  7
3270  7
3271  5
3272  10
3273  8
3274  6
3275  8
3276  4
3277  6
3278  7
3279  6
3280  6
3281  8
3282  8
3283  10
3284  11
3285  8
3286  8
3287  9
3288  11
3289  10
3290  8
3291  7
3292  7
3293  12
3294  10
3295  8
3296  7
3297  7
3298  3
3299  9
3300  12
3301  7
3302  9
3303  9
3304  6
3305  8
3306  6
3307  6
3308  5
3309  8
3310  3
3311  5
3312  7
3313  9
3314  4
3315  10
3316  9
3317  3
3318  9
3319  8
3320  4
3321  7
3322  7
3323  6
3324  4
3325  4
3326  1
3327  8
3328  8
3329  7
3330  8
3331  3
3332  6
3333  7
3334  5
3335  9
3336  9
3337  9
3338  7
3339  5
3340  11
3341  6
3342  4
3343  7
3344  4
3345  4
3346  6
3347  1
3348  5
3349  8
3350  11
3351  7
3352  4
3353  13
3354  7
3355  4
3356  4
3357  5
3358  4
3359  9
3360  4
3361  7
3362  11
3363  5
3364  5
3365  8
3366  9
3367  10
3368  3
3369  6
3370  5
3371  5
3372  4
3373  6
3374  10
3375  3
3376  2
3377  5
3378  12
3379  5
3380  3
3381  4
3382  4
3383  1
3384  4
3385  3
3386  4
3387  10
3388  6
3389  2
3390  9
3391  6
3392  9
3393  2
3394  5
3395  4
3396  8
3397  8
3398  1
3399  2
3400  3
3401  6
3402  5
3403  4
3404  6
3405  7
3406  4
3407  4
3408  6
3409  4
3410  6
3411  7
3412  4
3413  6
3414  3
3415  0
3416  3
3417  3
3418  3
3419  6
3420  6
3421  5
3422  6
3423  2
3424  12
3425  6
3426  6
3427  7
3428  7
3429  2
3430  3
3431  2
3432  8
3433  4
3434  3
3435  1
3436  6
3437  2
3438  2
3439  4
3440  4
3441  6
3442  2
3443  3
3444  3
3445  3
3446  2
3447  7
3448  3
3449  4
3450  1
3451  3
3452  5
3453  5
3454  4
3455  6
3456  5
3457  3
3458  6
3459  5
3460  1
3461  2
3462  6
3463  2
3464  8
3465  6
3466  4
3467  6
3468  2
3469  2
3470  5
3471  5
3472  6
3473  2
3474  6
3475  4
3476  2
3477  3
3478  5
3479  3
3480  2
3481  4
3482  1
3483  0
3484  3
3485  3
3486  2
3487  2
3488  3
3489  5
3490  1
3491  3
3492  2
3493  4
3494  6
3495  3
3496  5
3497  6
3498  2
3499  1
3500  5
3501  3
3502  3
3503  3
3504  1
3505  4
3506  4
3507  5
3508  5
3509  4
3510  0
3511  3
3512  5
3513  2
3514  3
3515  3
3516  3
3517  8
3518  4
3519  5
3520  6
3521  10
3522  14
3523  23
3524  33
3525  35
3526  55
3527  65
3528  93
3529  89
3530  149
3531  133
3532  129
3533  137
3534  119
3535  113
3536  83
3537  44
3538  34
3539  28
3540  12
3541  16
3542  9
3543  6
3544  1
3545  4
3546  7
3547  1
3548  9
3549  0
3550  4
3551  2
3552  1
3553  5
3554  2
3555  6
3556  2
3557  0
3558  3
3559  3
3560  3
3561  2
3562  3
3563  2
3564  2
3565  5
3566  5
3567  8
3568  2
3569  5
3570  1
3571  3
3572  5
3573  3
3574  4
3575  3
3576  5
3577  3
3578  1
3579  2
3580  5
3581  0
3582  2
3583  1
3584  3
3585  2
3586  3
3587  3
3588  4
3589  3
3590  0
3591  3
3592  3
3593  2
3594  0
3595  3
3596  2
3597  2
3598  3
3599  4
3600  2
3601  2
3602  4
3603  2
3604  3
3605  2
3606  2
3607  3
3608  3
3609  2
3610  1
3611  2
3612  1
3613  4
3614  3
3615  1
3616  1
3617  6
3618  4
3619  0
3620  3
3621  4
3622  3
3623  2
3624  0
3625  4
3626  3
3627  3
3628  1
3629  3
3630  0
3631  3
3632  0
3633  3
3634  1
3635  1
3636  3
3637  7
3638  4
3639  1
3640  2
3641  5
3642  1
3643  2
3644  3
3645  0
3646  2
3647  2
3648  1
3649  3
3650  0
3651  1
3652  0
3653  3
3654  3
3655  2
3656  0
3657  7
3658  1
3659  2
3660  2
3661  2
3662  1
3663  1
3664  3
3665  2
3666  1
3667  1
3668  0
3669  4
3670  2
3671  0
3672  3
3673  1
3674  2
3675  3
3676  2
3677  0
3678  3
3679  1
3680  1
3681  1
3682  1
3683  2
3684  2
3685  1
3686  3
3687  0
3688  1
3689  2
3690  0
3691  2
3692  1
3693  6
3694  2
3695  2
3696  0
3697  3
3698  1
3699  1
3700  0
3701  1
3702  1
3703  2
3704  1
3705  2
3706  1
3707  2
3708  3
3709  1
3710  2
3711  1
3712  1
3713  0
3714  1
3715  3
3716  1
3717  6
3718  0
3719  0
3720  0
3721  3
3722  1
3723  1
3724  0
3725  1
3726  3
3727  3
3728  2
3729  2
3730  4
3731  2
3732  3
3733  4
3734  0
3735  1
3736  1
3737  4
3738  1
3739  3
3740  3
3741  0
3742  2
3743  1
3744  0
3745  1
3746  1
3747  0
3748  1
3749  1
3750  1
3751  5
3752  1
3753  2
3754  0
3755  2
3756  1
3757  1
3758  3
3759  1
3760  0
3761  1
3762  1
3763  2
3764  2
3765  2
3766  1
3767  1
3768  0
3769  2
3770  0
3771  1
3772  1
3773  2
3774  0
3775  0
3776  0
3777  1
3778  1
3779  1
3780  0
3781  1
3782  2
3783  0
3784  2
3785  0
3786  3
3787  2
3788  1
3789  0
3790  2
3791  0
3792  0
3793  1
3794  2
3795  2
3796  1
3797  0
3798  3
3799  1
3800  0
3801  1
3802  1
3803  1
3804  0
3805  0
3806  1
3807  1
3808  3
3809  1
3810  3
3811  2
3812  2
3813  1
3814  0
3815  1
3816  0
3817  2
3818  0
3819  0
3820  2
3821  0
3822  0
3823  1
3824  0
3825  0
3826  5
3827  0
3828  1
3829  1
3830  0
3831  3
3832  3
3833  2
3834  3
3835  1
3836  1
3837  4
3838  3
3839  6
3840  2
3841  2
3842  2
3843  1
3844  0
3845  3
3846  3
3847  0
3848  1
3849  1
3850  1
3851  1
3852  4
3853  1
3854  1
3855  1
3856  1
3857  0
3858  0
3859  3
3860  1
3861  1
3862  2
3863  0
3864  3
3865  0
3866  1
3867  1
3868  0
3869  2
3870  1
3871  2
3872  0
3873  0
3874  0
3875  1
3876  0
3877  1
3878  0
3879  0
3880  0
3881  0
3882  2
3883  0
3884  0
3885  0
3886  0
3887  3
3888  0
3889  0
3890  0
3891  0
3892  0
3893  0
3894  1
3895  1
3896  1
3897  2
3898  1
3899  0
3900  1
3901  0
3902  1
3903  0
3904  1
3905  0
3906  1
3907  2
3908  1
3909  1
3910  0
3911  2
3912  2
3913  0
3914  0
3915  0
3916  0
3917  2
3918  0
3919  0
3920  1
3921  1
3922  1
3923  1
3924  1
3925  2
3926  1
3927  0
3928  0
3929  0
3930  0
3931  2
3932  2
3933  1
3934  0
3935  2
3936  0
3937  0
3938  1
3939  1
3940  0
3941  0
3942  3
3943  0
3944  0
3945  1
3946  2
3947  0
3948  2
3949  2
3950  0
3951  0
3952  1
3953  0
3954  1
3955  2
3956  2
3957  0
3958  0
3959  0
3960  0
3961  3
3962  1
3963  0
3964  2
3965  1
3966  1
3967  0
3968  1
3969  0
3970  0
3971  1
3972  1
3973  0
3974  0
3975  0
3976  1
3977  4
3978  0
3979  1
3980  2
3981  0
3982  0
3983  0
3984  0
3985  0
3986  0
3987  0
3988  0
3989  1
3990  0
3991  2
3992  1
3993  1
3994  0
3995  0
3996  2
3997  1
3998  2
3999  1
4000  4
4001  1
4002  0
4003  4
4004  4
4005  6
4006  5
4007  14
4008  17
4009  22
4010  24
4011  39
4012  47
4013  64
4014  74
4015  95
4016  101
4017  116
4018  115
4019  106
4020  84
4021  73
4022  48
4023  44
4024  21
4025  19
4026  9
4027  7
4028  4
4029  1
4030  1
4031  0
4032  0
4033  1
4034  0
4035  1
4036  1
4037  2
4038  0
4039  0
4040  0
4041  0
4042  3
4043  0
4044  0
4045  0
4046  3
4047  0
4048  0
4049  1
4050  0
4051  1
4052  0
4053  1
4054  0
4055  1
4056  1
4057  0
4058  0
4059  1
4060  1
4061  2
4062  2
4063  1
4064  0
4065  0
4066  0
4067  1
4068  0
4069  0
4070  0
4071  1
4072  1
4073  0
4074  0
4075  0
4076  2
4077  0
4078  1
4079  2
4080  0
4081  0
4082  1
4083  0
4084  1
4085  0
4086  0
4087  0
4088  1
4089  1
4090  1
4091  1
4092  0
4093  0
4094  0
4095  1
4096  0
4097  0
4098  0
4099  1
4100  3
4101  0
4102  2
4103  0
4104  1
4105  1
4106  0
4107  0
4108  2
4109  0
4110  0
4111  0
4112  0
4113  0
4114  1
4115  0
4116  0
4117  0
4118  0
4119  0
4120  0
4121  2
4122  0
4123  0
4124  0
4125  1
4126  0
4127  0
4128  0
4129  0
4130  2
4131  1
4132  0
4133  0
4134  1
4135  0
4136  0
4137  2
4138  3
4139  2
4140  0
4141  1
4142  1
4143  0
4144  0
4145  3
4146  1
4147  0
4148  0
4149  0
4150  0
4151  0
4152  1
4153  0
4154  1
4155  3
4156  1
4157  0
4158  1
4159  1
4160  1
4161  0
4162  2
4163  0
4164  1
4165  0
4166  0
4167  0
4168  1
4169  0
4170  0
4171  0
4172  0
4173  0
4174  1
4175  0
4176  1
4177  0
4178  0
4179  1
4180  1
4181  1
4182  0
4183  0
4184  2
4185  0
4186  0
4187  0
4188  1
4189  0
4190  0
4191  0
4192  0
4193  1
4194  0
4195  1
4196  0
4197  0
4198  1
4199  2
4200  0
4201  0
4202  0
4203  2
4204  1
4205  0
4206  0
4207  1
4208  0
4209  0
4210  0
4211  0
4212  2
4213  0
4214  0
4215  1
4216  0
4217  0
4218  0
4219  0
4220  0
4221  0
4222  1
4223  1
4224  0
4225  1
4226  0
4227  0
4228  2
4229  0
4230  1
4231  1
4232  1
4233  0
4234  0
4235  0
4236  0
4237  0
4238  1
4239  0
4240  0
4241  0
4242  0
4243  1
4244  1
4245  1
4246  0
4247  0
4248  0
4249  0
4250  0
4251  0
4252  0
4253  0
4254  0
4255  1
4256  0
4257  0
4258  0
4259  0
4260  0
4261  0
4262  0
4263  0
4264  0
4265  0
4266  0
4267  0
4268  0
4269  0
4270  1
4271  1
4272  1
4273  0
4274  1
4275  0
4276  0
4277  0
4278  1
4279  1
4280  0
4281  0
4282  0
4283  0
4284  0
4285  0
4286  1
4287  1
4288  1
4289  0
4290  1
4291  0
4292  0
4293  0
4294  0
4295  0
4296  0
4297  2
4298  0
4299  0
4300  0
4301  1
4302  0
4303  0
4304  0
4305  2
4306  0
4307  0
4308  0
4309  0
4310  0
4311  0
4312  0
4313  0
4314  0
4315  0
4316  0
4317  0
4318  0
4319  0
4320  0
4321  1
4322  0
4323  0
4324  0
4325  1
4326  1
4327  0
4328  0
4329  0
4330  1
4331  1
4332  0
4333  0
4334  0
4335  0
4336  0
4337  0
4338  0
4339  0
4340  0
4341  1
4342  0
4343  0
4344  0
4345  1
4346  0
4347  1
4348  0
4349  0
4350  1
4351  0
4352  0
4353  0
4354  1
4355  0
4356  0
4357  0
4358  0
4359  1
4360  1
4361  0
4362  0
4363  0
4364  0
4365  0
4366  1
4367  0
4368  0
4369  0
4370  0
4371  1
4372  0
4373  1
4374  0
4375  1
4376  0
4377  0
4378  0
4379  0
4380  0
4381  1
4382  2
4383  0
4384  0
4385  0
4386  0
4387  0
4388  0
4389  1
4390  0
4391  3
4392  0
4393  2
4394  1
4395  0
4396  1
4397  0
4398  0
4399  1
4400  1
4401  1
4402  1
4403  3
4404  2
4405  5
4406  8
4407  5
4408  10
4409  12
4410  9
4411  8
4412  5
4413  8
4414  5
4415  3
4416  4
4417  3
4418  4
4419  3
4420  2
4421  0
4422  0
4423  1
4424  0
4425  0
4426  1
4427  0
4428  0
4429  0
4430  1
4431  0
4432  1
4433  0
4434  0
4435  1
4436  1
4437  0
4438  0
4439  0
4440  0
4441  0
4442  0
4443  1
4444  1
4445  1
4446  0
4447  0
4448  1
4449  0
4450  2
4451  0
4452  0
4453  0
4454  0
4455  0
4456  1
4457  0
4458  2
4459  0
4460  0
4461  0
4462  0
4463  0
4464  0
4465  0
4466  0
4467  0
4468  0
4469  1
4470  0
4471  1
4472  0
4473  0
4474  0
4475  1
4476  0
4477  1
4478  0
4479  0
4480  0
4481  1
4482  0
4483  0
4484  0
4485  1
4486  0
4487  0
4488  0
4489  1
4490  0
4491  1
4492  0
4493  0
4494  0
4495  0
4496  0
4497  0
4498  0
4499  0
4500  0
4501  0
4502  2
4503  1
4504  0
4505  0
4506  0
4507  1
4508  0
4509  0
4510  0
4511  0
4512  0
4513  0
4514  0
4515  1
4516  0
4517  0
4518  1
4519  1
4520  0
4521  0
4522  1
4523  0
4524  1
4525  0
4526  0
4527  0
4528  1
4529  0
4530  1
4531  0
4532  1
4533  0
4534  0
4535  0
4536  0
4537  0
4538  0
4539  0
4540  2
4541  0
4542  0
4543  1
4544  1
4545  0
4546  2
4547  0
4548  0
4549  0
4550  0
4551  0
4552  0
4553  0
4554  0
4555  0
4556  0
4557  0
4558  0
4559  0
4560  0
4561  0
4562  0
4563  1
4564  0
4565  0
4566  0
4567  1
4568  0
4569  0
4570  0
4571  0
4572  1
4573  0
4574  0
4575  1
4576  0
4577  0
4578  0
4579  0
4580  1
4581  0
4582  1
4583  1
4584  0
4585  0
4586  0
4587  0
4588  0
4589  0
4590  0
4591  0
4592  1
4593  1
4594  2
4595  0
4596  0
4597  0
4598  0
4599  0
4600  1
4601  0
4602  0
4603  0
4604  0
4605  1
4606  0
4607  0
4608  0
4609  0
4610  0
4611  0
4612  1
4613  0
4614  0
4615  1
4616  1
4617  0
4618  0
4619  0
4620  0
4621  0
4622  0
4623  0
4624  0
4625  0
4626  1
4627  0
4628  0
4629  1
4630  2
4631  0
4632  2
4633  1
4634  0
4635  0
4636  0
4637  0
4638  0
4639  0
4640  1
4641  1
4642  1
4643  2
4644  0
4645  0
4646  0
4647  0
4648  0
4649  0
4650  1
4651  0
4652  0
4653  1
4654  0
4655  0
4656  0
4657  0
4658  1
4659  0
4660  0
4661  0
4662  0
4663  0
4664  0
4665  0
4666  1
4667  0
4668  1
4669  1
4670  0
4671  0
4672  0
4673  0
4674  0
4675  0
4676  1
4677  1
4678  0
4679  0
4680  0
4681  0
4682  1
4683  0
4684  0
4685  0
4686  0
4687  0
4688  1
4689  0
4690  1
4691  0
4692  0
4693  0
4694  0
4695  1
4696  0
4697  0
4698  0
4699  0
4700  0
4701  0
4702  1
4703  0
4704  0
4705  0
4706  0
4707  1
4708  0
4709  1
4710  1
4711  1
4712  0
4713  0
4714  0
4715  0
4716  0
4717  0
4718  0
4719  0
4720  0
4721  0
4722  0
4723  0
4724  0
4725  1
4726  1
4727  1
4728  0
4729  0
4730  0
4731  0
4732  0
4733  0
4734  0
4735  1
4736  0
4737  1
4738  0
4739  1
4740  0
4741  0
4742  0
4743  0
4744  0
4745  0
4746  0
4747  1
4748  0
4749  0
4750  0
4751  0
4752  0
4753  0
4754  0
4755  0
4756  0
4757  0
4758  0
4759  1
4760  0
4761  0
4762  0
4763  0
4764  1
4765  0
4766  0
4767  0
4768  3
4769  0
4770  0
4771  0
4772  1
4773  1
4774  0
4775  1
4776  0
4777  0
4778  1
4779  0
4780  1
4781  2
4782  0
4783  0
4784  0
4785  0
4786  0
4787  0
4788  1
4789  0
4790  0
4791  0
4792  1
4793  0
4794  1
4795  0
4796  1
4797  0
4798  1
4799  0
4800  0
4801  1
4802  1
4803  1
4804  0
4805  1
4806  0
4807  0
4808  0
4809  1
4810  1
4811  2
4812  1
4813  1
4814  0
4815  1
4816  1
4817  0
4818  2
4819  0
4820  0
4821  0
4822  0
4823  0
4824  1
4825  0
4826  0
4827  0
4828  1
4829  0
4830  1
4831  0
4832  0
4833  0
4834  0
4835  0
4836  0
4837  0
4838  0
4839  0
4840  0
4841  0
4842  0
4843  0
4844  0
4845  0
4846  0
4847  0
4848  0
4849  0
4850  0
4851  0
4852  1
4853  0
4854  0
4855  0
4856  0
4857  0
4858  0
4859  0
4860  0
4861  0
4862  0
4863  1
4864  0
4865  0
4866  0
4867  1
4868  0
4869  0
4870  2
4871  1
4872  1
4873  0
4874  0
4875  0
4876  0
4877  0
4878  1
4879  1
4880  1
4881  0
4882  0
4883  1
4884  0
4885  0
4886  1
4887  0
4888  0
4889  0
4890  0
4891  0
4892  0
4893  0
4894  0
4895  0
4896  0
4897  0
4898  1
4899  0
4900  2
4901  0
4902  0
4903  1
4904  0
4905  0
4906  0
4907  0
4908  0
4909  1
4910  0
4911  0
4912  0
4913  1
4914  0
4915  0
4916  0
4917  0
4918  0
4919  0
4920  0
4921  1
4922  0
4923  0
4924  0
4925  0
4926  2
4927  0
4928  0
4929  0
4930  0
4931  1
4932  0
4933  1
4934  0
4935  0
4936  0
4937  0
4938  0
4939  0
4940  1
4941  1
4942  0
4943  0
4944  0
4945  0
4946  0
4947  0
4948  1
4949  0
4950  0
4951  1
4952  1
4953  1
4954  0
4955  0
4956  0
4957  0
4958  0
4959  0
4960  0
4961  0
4962  0
4963  0
4964  1
4965  0
4966  0
4967  0
4968  0
4969  1
4970  0
4971  0
4972  0
4973  0
4974  0
4975  0
4976  0
4977  0
4978  0
4979  0
4980  0
4981  0
4982  0
4983  0
4984  0
4985  0
4986  0
4987  0
4988  0
4989  0
4990  1
4991  0
4992  0
4993  1
4994  0
4995  1
4996  0
4997  0
4998  0
4999  0
5000  0
5001  0
5002  0
5003  0
5004  0
5005  0
5006  0
5007  1
5008  1
5009  0
5010  0
5011  0
5012  1
5013  0
5014  0
5015  0
5016  0
5017  0
5018  2
5019  0
5020  0
5021  0
5022  1
5023  1
5024  0
5025  0
5026  0
5027  0
5028  3
5029  1
5030  2
5031  0
5032  0
5033  0
5034  1
5035  0
5036  0
5037  0
5038  0
5039  0
5040  0
5041  0
5042  0
5043  1
5044  1
5045  1
5046  0
5047  1
5048  0
5049  0
5050  0
5051  1
5052  1
5053  0
5054  1
5055  0
5056  0
5057  0
5058  0
5059  0
5060  0
5061  0
5062  0
5063  0
5064  0
5065  0
5066  0
5067  1
5068  0
5069  0
5070  0
5071  0
5072  0
5073  0
5074  0
5075  1
5076  0
5077  1
5078  0
5079  0
5080  0
5081  1
5082  1
5083  0
5084  0
5085  0
5086  0
5087  0
5088  0
5089  0
5090  0
5091  1
5092  0
5093  0
5094  0
5095  1
5096  0
5097  0
5098  0
5099  0
5100  0
5101  1
5102  0
5103  0
5104  0
5105  0
5106  0
5107  0
5108  0
5109  1
5110  0
5111  0
5112  0
5113  0
5114  0
5115  0
5116  0
5117  0
5118  1
5119  0
5120  0
5121  0
5122  0
5123  0
5124  0
5125  0
5126  0
5127  0
5128  1
5129  1
5130  0
5131  0
5132  0
5133  1
5134  0
5135  0
5136  0
5137  0
5138  2
5139  0
5140  0
5141  0
5142  0
5143  0
5144  0
5145  0
5146  0
5147  0
5148  0
5149  0
5150  0
5151  0
5152  0
5153  0
5154  0
5155  0
5156  0
5157  0
5158  0
5159  1
5160  0
5161  1
5162  0
5163  1
5164  0
5165  1
5166  0
5167  0
5168  0
5169  0
5170  1
5171  0
5172  2
5173  0
5174  1
5175  0
5176  1
5177  0
5178  1
5179  0
5180  1
5181  0
5182  0
5183  0
5184  0
5185  0
5186  0
5187  0
5188  0
5189  0
5190  0
5191  0
5192  0
5193  1
5194  0
5195  0
5196  0
5197  0
5198  0
5199  1
5200  0
5201  0
5202  0
5203  1
5204  0
5205  0
5206  0
5207  0
5208  0
5209  1
5210  0
5211  0
5212  0
5213  0
5214  0
5215  0
5216  0
5217  0
5218  0
5219  0
5220  1
5221  1
5222  1
5223  1
5224  0
5225  1
5226  2
5227  1
5228  1
5229  0
5230  1
5231  1
5232  0
5233  1
5234  0
5235  2
5236  0
5237  0
5238  0
5239  0
5240  1
5241  0
5242  0
5243  0
5244  1
5245  0
5246  1
5247  0
5248  1
5249  0
5250  0
5251  0
5252  1
5253  0
5254  0
5255  0
5256  0
5257  0
5258  0
5259  0
5260  0
5261  0
5262  0
5263  0
5264  0
5265  0
5266  1
5267  1
5268  1
5269  0
5270  0
5271  0
5272  0
5273  0
5274  1
5275  1
5276  0
5277  1
5278  0
5279  1
5280  0
5281  0
5282  0
5283  0
5284  0
5285  1
5286  0
5287  0
5288  0
5289  1
5290  1
5291  0
5292  0
5293  0
5294  1
5295  0
5296  0
5297  0
5298  0
5299  0
5300  0
5301  1
5302  0
5303  0
5304  0
5305  0
5306  0
5307  0
5308  0
5309  0
5310  0
5311  1
5312  0
5313  0
5314  0
5315  0
5316  0
5317  0
5318  0
5319  0
5320  0
5321  0
5322  0
5323  0
5324  2
5325  1
5326  1
5327  0
5328  0
5329  1
5330  1
5331  1
5332  1
5333  0
5334  0
5335  2
5336  0
5337  1
5338  1
5339  1
5340  2
5341  1
5342  1
5343  0
5344  0
5345  0
5346  0
5347  0
5348  0
5349  0
5350  0
5351  0
5352  0
5353  0
5354  0
5355  0
5356  0
5357  0
5358  0
5359  0
5360  0
5361  1
5362  0
5363  0
5364  0
5365  1
5366  1
5367  0
5368  0
5369  0
5370  0
5371  0
5372  0
5373  0
5374  0
5375  0
5376  0
5377  0
5378  0
5379  0
5380  0
5381  0
5382  1
5383  0
5384  1
5385  0
5386  0
5387  0
5388  1
5389  0
5390  0
5391  0
5392  0
5393  0
5394  0
5395  0
5396  0
5397  0
5398  0
5399  2
5400  0
5401  1
5402  0
5403  0
5404  0
5405  0
5406  0
5407  0
5408  0
5409  0
5410  0
5411  0
5412  1
5413  1
5414  0
5415  1
5416  0
5417  0
5418  0
5419  0
5420  0
5421  0
5422  0
5423  0
5424  0
5425  0
5426  0
5427  0
5428  0
5429  0
5430  0
5431  0
5432  0
5433  0
5434  0
5435  0
5436  0
5437  0
5438  0
5439  0
5440  0
5441  0
5442  0
5443  1
5444  0
5445  1
5446  0
5447  0
5448  0
5449  0
5450  0
5451  0
5452  1
5453  0
5454  0
5455  1
5456  0
5457  0
5458  0
5459  0
5460  0
5461  0
5462  0
5463  1
5464  0
5465  0
5466  0
5467  0
5468  0
5469  0
5470  0
5471  0
5472  0
5473  0
5474  0
5475  0
5476  0
5477  0
5478  0
5479  1
5480  0
5481  0
5482  0
5483  1
5484  0
5485  0
5486  0
5487  0
5488  1
5489  0
5490  0
5491  1
5492  0
5493  0
5494  0
5495  1
5496  0
5497  0
5498  1
5499  0
5500  0
5501  0
5502  0
5503  0
5504  1
5505  0
5506  0
5507  0
5508  0
5509  1
5510  0
5511  0
5512  0
5513  2
5514  0
5515  0
5516  0
5517  0
5518  0
5519  0
5520  0
5521  0
5522  1
5523  1
5524  0
5525  0
5526  0
5527  0
5528  0
5529  0
5530  0
5531  0
5532  0
5533  1
5534  0
5535  0
5536  0
5537  0
5538  0
5539  0
5540  0
5541  0
5542  0
5543  0
5544  0
5545  0
5546  0
5547  0
5548  1
5549  0
5550  0
5551  0
5552  0
5553  0
5554  0
5555  0
5556  0
5557  0
5558  0
5559  0
5560  0
5561  0
5562  0
5563  0
5564  0
5565  0
5566  0
5567  0
5568  0
5569  0
5570  0
5571  0
5572  0
5573  0
5574  0
5575  0
5576  0
5577  0
5578  0
5579  0
5580  0
5581  1
5582  0
5583  0
5584  1
5585  1
5586  1
5587  0
5588  0
5589  1
5590  0
5591  0
5592  1
5593  0
5594  2
5595  0
5596  0
5597  0
5598  1
5599  0
5600  0
5601  0
5602  0
5603  0
5604  0
5605  0
5606  0
5607  1
5608  1
5609  0
5610  0
5611  0
5612  0
5613  0
5614  0
5615  0
5616  0
5617  0
5618  0
5619  0
5620  0
5621  0
5622  0
5623  0
5624  0
5625  0
5626  0
5627  0
5628  0
5629  0
5630  0
5631  1
5632  0
5633  0
5634  0
5635  0
5636  0
5637  0
5638  0
5639  0
5640  1
5641  0
5642  0
5643  0
5644  0
5645  0
5646  0
5647  0
5648  0
5649  0
5650  1
5651  0
5652  0
5653  0
5654  0
5655  0
5656  0
5657  1
5658  1
5659  0
5660  0
5661  0
5662  0
5663  0
5664  0
5665  0
5666  0
5667  0
5668  0
5669  0
5670  0
5671  0
5672  0
5673  0
5674  0
5675  0
5676  0
5677  0
5678  0
5679  1
5680  1
5681  0
5682  0
5683  1
5684  0
5685  0
5686  0
5687  0
5688  0
5689  0
5690  0
5691  0
5692  0
5693  0
5694  0
5695  0
5696  0
5697  0
5698  0
5699  1
5700  0
5701  0
5702  0
5703  0
5704  0
5705  1
5706  3
5707  0
5708  0
5709  0
5710  2
5711  0
5712  0
5713  1
5714  0
5715  0
5716  1
5717  1
5718  0
5719  0
5720  0
5721  0
5722  0
5723  0
5724  0
5725  1
5726  0
5727  0
5728  1
5729  0
5730  0
5731  1
5732  0
5733  1
5734  0
5735  0
5736  0
5737  0
5738  0
5739  1
5740  0
5741  0
5742  0
5743  0
5744  0
5745  0
5746  0
5747  0
5748  0
5749  0
5750  0
5751  0
5752  0
5753  0
5754  0
5755  0
5756  1
5757  0
5758  1
5759  0
5760  0
5761  0
5762  0
5763  0
5764  0
5765  0
5766  0
5767  0
5768  1
5769  0
5770  0
5771  0
5772  0
5773  0
5774  0
5775  0
5776  0
5777  0
5778  0
5779  0
5780  0
5781  0
5782  0
5783  1
5784  0
5785  0
5786  0
5787  0
5788  0
5789  0
5790  0
5791  0
5792  0
5793  0
5794  0
5795  0
5796  2
5797  0
5798  0
5799  0
5800  0
5801  1
5802  0
5803  0
5804  0
5805  0
5806  0
5807  0
5808  0
5809  0
5810  1
5811  0
5812  1
5813  0
5814  1
5815  0
5816  0
5817  0
5818  0
5819  2
5820  0
5821  1
5822  1
5823  0
5824  0
5825  1
5826  0
5827  0
5828  0
5829  0
5830  0
5831  1
5832  1
5833  0
5834  1
5835  0
5836  0
5837  0
5838  0
5839  1
5840  0
5841  0
5842  0
5843  0
5844  1
5845  0
5846  0
5847  0
5848  1
5849  0
5850  0
5851  0
5852  0
5853  0
5854  0
5855  0
5856  0
5857  0
5858  0
5859  0
5860  0
5861  0
5862  0
5863  0
5864  0
5865  1
5866  0
5867  0
5868  0
5869  0
5870  0
5871  0
5872  2
5873  0
5874  0
5875  0
5876  0
5877  0
5878  1
5879  0
5880  0
5881  0
5882  0
5883  0
5884  0
5885  0
5886  0
5887  1
5888  0
5889  0
5890  0
5891  0
5892  0
5893  0
5894  1
5895  0
5896  0
5897  1
5898  0
5899  0
5900  0
5901  0
5902  0
5903  0
5904  0
5905  0
5906  0
5907  0
5908  1
5909  1
5910  0
5911  0
5912  2
5913  0
5914  2
5915  0
5916  0
5917  1
5918  1
5919  0
5920  0
5921  0
5922  0
5923  0
5924  0
5925  0
5926  1
5927  1
5928  0
5929  0
5930  0
5931  0
5932  0
5933  0
5934  0
5935  0
5936  0
5937  0
5938  0
5939  0
5940  0
5941  0
5942  0
5943  0
5944  0
5945  0
5946  0
5947  0
5948  1
5949  0
5950  2
5951  0
5952  0
5953  0
5954  0
5955  1
5956  0
5957  0
5958  0
5959  0
5960  0
5961  0
5962  0
5963  0
5964  0
5965  1
5966  0
5967  0
5968  0
5969  0
5970  0
5971  0
5972  0
5973  0
5974  1
5975  0
5976  1
5977  1
5978  0
5979  1
5980  0
5981  0
5982  0
5983  0
5984  0
5985  0
5986  0
5987  0
5988  2
5989  1
5990  0
5991  0
5992  0
5993  0
5994  0
5995  0
5996  0
5997  0
5998  1
5999  0
6000  0
6001  0
6002  0
6003  2
6004  0
6005  0
6006  0
6007  0
6008  0
6009  0
6010  1
6011  0
6012  0
6013  0
6014  0
6015  0
6016  0
6017  0
6018  0
6019  0
6020  0
6021  0
6022  0
6023  0
6024  0
6025  0
6026  0
6027  1
6028  0
6029  0
6030  0
6031  0
6032  0
6033  0
6034  0
6035  0
6036  0
6037  0
6038  0
6039  1
6040  0
6041  0
6042  0
6043  0
6044  0
6045  0
6046  0
6047  0
6048  0
6049  0
6050  0
6051  0
6052  0
6053  0
6054  0
6055  0
6056  0
6057  0
6058  0
6059  0
6060  0
6061  0
6062  0
6063  0
6064  0
6065  1
6066  0
6067  0
6068  0
6069  0
6070  0
6071  0
6072  0
6073  0
6074  0
6075  0
6076  1
6077  0
6078  0
6079  0
6080  0
6081  0
6082  0
6083  0
6084  0
6085  0
6086  0
6087  0
6088  1
6089  0
6090  1
6091  0
6092  0
6093  0
6094  0
6095  0
6096  0
6097  0
6098  0
6099  0
6100  0
6101  0
6102  0
6103  0
6104  0
6105  0
6106  0
6107  0
6108  0
6109  0
6110  1
6111  0
6112  0
6113  0
6114  0
6115  0
6116  0
6117  0
6118  0
6119  1
6120  1
6121  0
6122  0
6123  0
6124  0
6125  0
6126  0
6127  0
6128  0
6129  0
6130  0
6131  0
6132  0
6133  0
6134  0
6135  0
6136  0
6137  0
6138  0
6139  0
6140  0
6141  0
6142  0
6143  0
6144  0
6145  0
6146  0
6147  0
6148  0
6149  0
6150  1
6151  1
6152  0
6153  0
6154  0
6155  0
6156  0
6157  0
6158  0
6159  0
6160  0
6161  0
6162  2
6163  0
6164  0
6165  0
6166  0
6167  0
6168  0
6169  0
6170  0
6171  0
6172  0
6173  0
6174  0
6175  0
6176  0
6177  0
6178  0
6179  0
6180  0
6181  0
6182  0
6183  0
6184  0
6185  0
6186  1
6187  0
6188  0
6189  1
6190  1
6191  0
6192  0
6193  1
6194  1
6195  0
6196  0
6197  0
6198  1
6199  1
6200  1
6201  0
6202  0
6203  0
6204  0
6205  0
6206  0
6207  0
6208  0
6209  0
6210  2
6211  1
6212  0
6213  0
6214  0
6215  0
6216  0
6217  0
6218  0
6219  0
6220  0
6221  1
6222  0
6223  0
6224  1
6225  0
6226  0
6227  0
6228  0
6229  1
6230  0
6231  1
6232  0
6233  0
6234  0
6235  0
6236  0
6237  0
6238  0
6239  0
6240  0
6241  0
6242  1
6243  1
6244  0
6245  0
6246  0
6247  0
6248  0
6249  0
6250  0
6251  0
6252  0
6253  0
6254  1
6255  0
6256  0
6257  0
6258  0
6259  0
6260  0
6261  1
6262  1
6263  0
6264  0
6265  0
6266  0
6267  0
6268  0
6269  0
6270  0
6271  0
6272  0
6273  0
6274  0
6275  0
6276  0
6277  0
6278  0
6279  0
6280  1
6281  1
6282  0
6283  0
6284  0
6285  0
6286  0
6287  0
6288  0
6289  0
6290  0
6291  0
6292  1
6293  0
6294  1
6295  1
6296  0
6297  0
6298  0
6299  0
6300  0
6301  1
6302  1
6303  0
6304  0
6305  0
6306  1
6307  0
6308  0
6309  0
6310  0
6311  0
6312  1
6313  0
6314  0
6315  1
6316  0
6317  0
6318  1
6319  0
6320  0
6321  0
6322  0
6323  0
6324  0
6325  0
6326  0
6327  0
6328  0
6329  0
6330  1
6331  0
6332  0
6333  1
6334  0
6335  0
6336  0
6337  0
6338  1
6339  0
6340  1
6341  0
6342  0
6343  0
6344  0
6345  0
6346  0
6347  0
6348  0
6349  0
6350  0
6351  0
6352  0
6353  1
6354  0
6355  0
6356  0
6357  0
6358  0
6359  0
6360  0
6361  0
6362  0
6363  0
6364  0
6365  0
6366  0
6367  0
6368  0
6369  0
6370  0
6371  0
6372  1
6373  0
6374  0
6375  0
6376  0
6377  0
6378  0
6379  1
6380  0
6381  0
6382  0
6383  0
6384  1
6385  0
6386  0
6387  0
6388  0
6389  0
6390  0
6391  0
6392  1
6393  0
6394  0
6395  0
6396  1
6397  0
6398  0
6399  0
6400  0
6401  0
6402  0
6403  0
6404  1
6405  0
6406  0
6407  1
6408  0
6409  0
6410  1
6411  0
6412  0
6413  0
6414  1
6415  0
6416  0
6417  0
6418  1
6419  0
6420  0
6421  0
6422  0
6423  0
6424  0
6425  0
6426  0
6427  0
6428  0
6429  0
6430  0
6431  1
6432  0
6433  0
6434  0
6435  0
6436  0
6437  0
6438  0
6439  2
6440  0
6441  1
6442  0
6443  0
6444  0
6445  0
6446  0
6447  0
6448  0
6449  0
6450  0
6451  0
6452  0
6453  1
6454  0
6455  0
6456  0
6457  0
6458  1
6459  0
6460  1
6461  0
6462  0
6463  0
6464  0
6465  0
6466  0
6467  1
6468  0
6469  0
6470  1
6471  0
6472  0
6473  0
6474  0
6475  0
6476  0
6477  0
6478  1
6479  0
6480  0
6481  0
6482  0
6483  0
6484  0
6485  0
6486  0
6487  0
6488  0
6489  1
6490  0
6491  0
6492  0
6493  0
6494  0
6495  0
6496  1
6497  1
6498  0
6499  0
6500  1
6501  0
6502  0
6503  0
6504  0
6505  0
6506  0
6507  0
6508  0
6509  0
6510  0
6511  0
6512  0
6513  0
6514  0
6515  0
6516  0
6517  0
6518  0
6519  0
6520  0
6521  0
6522  0
6523  0
6524  0
6525  0
6526  0
6527  0
6528  0
6529  0
6530  0
6531  0
6532  1
6533  0
6534  1
6535  1
6536  0
6537  0
6538  0
6539  0
6540  0
6541  0
6542  0
6543  0
6544  0
6545  0
6546  0
6547  0
6548  0
6549  0
6550  0
6551  0
6552  0
6553  0
6554  0
6555  0
6556  0
6557  0
6558  0
6559  0
6560  0
6561  0
6562  1
6563  0
6564  0
6565  0
6566  0
6567  0
6568  0
6569  0
6570  0
6571  0
6572  0
6573  0
6574  0
6575  0
6576  0
6577  0
6578  0
6579  0
6580  0
6581  0
6582  0
6583  0
6584  1
6585  0
6586  0
6587  0
6588  0
6589  0
6590  0
6591  0
6592  0
6593  0
6594  0
6595  1
6596  0
6597  1
6598  0
6599  0
6600  0
6601  0
6602  0
6603  0
6604  0
6605  0
6606  0
6607  1
6608  0
6609  0
6610  0
6611  1
6612  0
6613  0
6614  0
6615  0
6616  0
6617  0
6618  1
6619  0
6620  0
6621  0
6622  0
6623  0
6624  0
6625  0
6626  0
6627  1
6628  0
6629  2
6630  0
6631  0
6632  0
6633  0
6634  0
6635  0
6636  0
6637  0
6638  0
6639  0
6640  0
6641  0
6642  0
6643  0
6644  0
6645  0
6646  0
6647  0
6648  0
6649  0
6650  0
6651  1
6652  0
6653  0
6654  0
6655  1
6656  0
6657  0
6658  0
6659  0
6660  0
6661  0
6662  0
6663  0
6664  1
6665  0
6666  0
6667  0
6668  0
6669  0
6670  0
6671  0
6672  0
6673  0
6674  0
6675  0
6676  0
6677  0
6678  1
6679  0
6680  0
6681  0
6682  1
6683  2
6684  0
6685  0
6686  0
6687  0
6688  0
6689  1
6690  0
6691  0
6692  0
6693  1
6694  0
6695  1
6696  0
6697  0
6698  0
6699  0
6700  0
6701  0
6702  0
6703  0
6704  0
6705  0
6706  0
6707  0
6708  0
6709  0
6710  0
6711  0
6712  0
6713  0
6714  0
6715  0
6716  0
6717  0
6718  0
6719  0
6720  1
6721  1
6722  0
6723  0
6724  0
6725  0
6726  1
6727  0
6728  0
6729  0
6730  0
6731  0
6732  0
6733  0
6734  1
6735  0
6736  0
6737  0
6738  0
6739  0
6740  1
6741  1
6742  1
6743  0
6744  0
6745  0
6746  1
6747  0
6748  1
6749  0
6750  0
6751  0
6752  0
6753  0
6754  0
6755  1
6756  0
6757  0
6758  0
6759  2
6760  0
6761  1
6762  0
6763  0
6764  0
6765  1
6766  1
6767  0
6768  0
6769  0
6770  0
6771  0
6772  0
6773  0
6774  0
6775  0
6776  0
6777  0
6778  0
6779  0
6780  0
6781  0
6782  0
6783  0
6784  1
6785  0
6786  1
6787  1
6788  0
6789  0
6790  0
6791  0
6792  0
6793  0
6794  0
6795  0
6796  0
6797  0
6798  0
6799  0
6800  0
6801  0
6802  0
6803  0
6804  0
6805  0
6806  0
6807  0
6808  0
6809  0
6810  0
6811  1
6812  0
6813  0
6814  0
6815  0
6816  0
6817  0
6818  0
6819  0
6820  0
6821  0
6822  0
6823  0
6824  0
6825  0
6826  1
6827  0
6828  0
6829  0
6830  0
6831  0
6832  0
6833  0
6834  0
6835  0
6836  0
6837  0
6838  1
6839  0
6840  0
6841  2
6842  0
6843  0
6844  1
6845  0
6846  0
6847  0
6848  0
6849  0
6850  0
6851  0
6852  1
6853  0
6854  0
6855  0
6856  0
6857  0
6858  0
6859  0
6860  0
6861  0
6862  0
6863  0
6864  0
6865  1
6866  0
6867  0
6868  0
6869  0
6870  0
6871  0
6872  0
6873  0
6874  0
6875  0
6876  0
6877  0
6878  0
6879  0
6880  0
6881  0
6882  0
6883  0
6884  0
6885  1
6886  0
6887  0
6888  0
6889  0
6890  0
6891  0
6892  0
6893  0
6894  0
6895  0
6896  1
6897  0
6898  1
6899  0
6900  0
6901  0
6902  1
6903  0
6904  0
6905  0
6906  0
6907  0
6908  0
6909  0
6910  0
6911  0
6912  0
6913  0
6914  0
6915  0
6916  0
6917  0
6918  0
6919  0
6920  0
6921  0
6922  0
6923  0
6924  0
6925  0
6926  0
6927  0
6928  1
6929  0
6930  0
6931  1
6932  0
6933  0
6934  0
6935  0
6936  0
6937  0
6938  0
6939  0
6940  0
6941  0
6942  0
6943  0
6944  0
6945  0
6946  0
6947  0
6948  0
6949  0
6950  1
6951  0
6952  0
6953  0
6954  0
6955  0
6956  0
6957  0
6958  0
6959  0
6960  0
6961  0
6962  0
6963  2
6964  0
6965  1
6966  0
6967  0
6968  0
6969  0
6970  0
6971  0
6972  0
6973  0
6974  0
6975  0
6976  0
6977  0
6978  0
6979  0
6980  0
6981  0
6982  0
6983  0
6984  0
6985  1
6986  0
6987  0
6988  1
6989  0
6990  0
6991  0
6992  0
6993  0
6994  0
6995  0
6996  0
6997  0
6998  0
6999  0
7000  1
7001  0
7002  0
7003  0
7004  0
7005  0
7006  0
7007  0
7008  0
7009  0
7010  0
7011  0
7012  0
7013  0
7014  0
7015  0
7016  1
7017  0
7018  0
7019  0
7020  0
7021  0
7022  0
7023  0
7024  0
7025  0
7026  0
7027  0
7028  0
7029  0
7030  0
7031  0
7032  0
7033  0
7034  0
7035  0
7036  0
7037  0
7038  0
7039  0
7040  0
7041  0
7042  0
7043  0
7044  0
7045  0
7046  0
7047  0
7048  0
7049  0
7050  1
7051  0
7052  0
7053  0
7054  0
7055  0
7056  0
7057  0
7058  0
7059  0
7060  0
7061  0
7062  1
7063  0
7064  0
7065  0
7066  0
7067  0
7068  0
7069  0
7070  0
7071  0
7072  0
7073  0
7074  0
7075  0
7076  0
7077  1
7078  0
7079  0
7080  0
7081  0
7082  0
7083  0
7084  0
7085  0
7086  0
7087  0
7088  0
7089  0
7090  0
7091  0
7092  0
7093  0
7094  0
7095  0
7096  0
7097  0
7098  0
7099  0
7100  0
7101  0
7102  0
7103  0
7104  0
7105  0
7106  0
7107  0
7108  0
7109  0
7110  0
7111  0
7112  0
7113  0
7114  0
7115  0
7116  0
7117  0
7118  0
7119  1
7120  0
7121  0
7122  0
7123  0
7124  0
7125  0
7126  0
7127  1
7128  0
7129  1
7130  0
7131  0
7132  0
7133  0
7134  1
7135  1
7136  0
7137  0
7138  1
7139  0
7140  0
7141  0
7142  0
7143  1
7144  0
7145  2
7146  0
7147  0
7148  0
7149  0
7150  0
7151  0
7152  0
7153  0
7154  0
7155  0
7156  0
7157  0
7158  0
7159  0
7160  0
7161  0
7162  0
7163  0
7164  0
7165  0
7166  0
7167  0
7168  0
7169  0
7170  0
7171  0
7172  1
7173  0
7174  0
7175  0
7176  0
7177  0
7178  0
7179  0
7180  0
7181  0
7182  0
7183  0
7184  0
7185  0
7186  0
7187  0
7188  0
7189  0
7190  0
7191  0
7192  0
7193  0
7194  0
7195  0
7196  0
7197  0
7198  0
7199  0
7200  0
7201  0
7202  0
7203  0
7204  0
7205  1
7206  0
7207  0
7208  0
7209  0
7210  0
7211  0
7212  0
7213  0
7214  0
7215  0
7216  0
7217  0
7218  1
7219  0
7220  0
7221  0
7222  0
7223  0
7224  0
7225  0
7226  0
7227  0
7228  0
7229  0
7230  0
7231  0
7232  0
7233  0
7234  1
7235  0
7236  0
7237  0
7238  0
7239  0
7240  0
7241  0
7242  0
7243  0
7244  0
7245  0
7246  0
7247  0
7248  0
7249  0
7250  0
7251  0
7252  1
7253  0
7254  0
7255  1
7256  0
7257  0
7258  0
7259  0
7260  0
7261  0
7262  1
7263  0
7264  0
7265  0
7266  0
7267  0
7268  0
7269  0
7270  0
7271  0
7272  0
7273  0
7274  0
7275  0
7276  0
7277  0
7278  0
7279  0
7280  0
7281  0
7282  0
7283  0
7284  0
7285  0
7286  0
7287  0
7288  0
7289  0
7290  0
7291  0
7292  0
7293  0
7294  0
7295  0
7296  0
7297  0
7298  1
7299  0
7300  1
7301  0
7302  0
7303  0
7304  0
7305  0
7306  0
7307  0
7308  0
7309  0
7310  0
7311  0
7312  0
7313  0
7314  0
7315  1
7316  0
7317  0
7318  0
7319  1
7320  0
7321  0
7322  0
7323  0
7324  0
7325  0
7326  0
7327  0
7328  0
7329  0
7330  0
7331  0
7332  0
7333  0
7334  0
7335  0
7336  0
7337  0
7338  0
7339  0
7340  0
7341  1
7342  0
7343  0
7344  0
7345  0
7346  0
7347  0
7348  0
7349  0
7350  0
7351  0
7352  0
7353  0
7354  0
7355  0
7356  0
7357  0
7358  0
7359  0
7360  0
7361  0
7362  0
7363  1
7364  0
7365  0
7366  0
7367  0
7368  0
7369  0
7370  1
7371  0
7372  0
7373  0
7374  0
7375  0
7376  0
7377  0
7378  0
7379  0
7380  0
7381  0
7382  0
7383  0
7384  0
7385  0
7386  0
7387  0
7388  0
7389  0
7390  0
7391  0
7392  0
7393  0
7394  0
7395  0
7396  0
7397  0
7398  0
7399  0
7400  0
7401  0
7402  0
7403  0
7404  1
7405  0
7406  0
7407  0
7408  0
7409  0
7410  0
7411  0
7412  0
7413  0
7414  0
7415  0
7416  1
7417  0
7418  0
7419  1
7420  0
7421  0
7422  1
7423  0
7424  0
7425  0
7426  0
7427  0
7428  0
7429  0
7430  0
7431  0
7432  0
7433  0
7434  0
7435  0
7436  0
7437  0
7438  0
7439  0
7440  0
7441  0
7442  0
7443  0
7444  0
7445  0
7446  0
7447  0
7448  0
7449  0
7450  0
7451  0
7452  0
7453  0
7454  0
7455  0
7456  0
7457  0
7458  0
7459  0
7460  0
7461  0
7462  0
7463  0
7464  0
7465  0
7466  0
7467  0
7468  0
7469  1
7470  0
7471  0
7472  0
7473  0
7474  0
7475  0
7476  0
7477  0
7478  0
7479  0
7480  0
7481  0
7482  0
7483  0
7484  0
7485  0
7486  0
7487  0
7488  0
7489  0
7490  0
7491  0
7492  0
7493  0
7494  0
7495  0
7496  0
7497  0
7498  0
7499  0
7500  0
7501  0
7502  0
7503  0
7504  0
7505  0
7506  0
7507  0
7508  0
7509  0
7510  0
7511  0
7512  0
7513  0
7514  0
7515  0
7516  0
7517  0
7518  0
7519  0
7520  0
7521  0
7522  0
7523  0
7524  0
7525  0
7526  0
7527  0
7528  0
7529  0
7530  0
7531  0
7532  0
7533  0
7534  0
7535  0
7536  0
7537  0
7538  0
7539  0
7540  0
7541  0
7542  0
7543  0
7544  0
7545  0
7546  0
7547  2
7548  0
7549  0
7550  0
7551  0
7552  0
7553  0
7554  0
7555  0
7556  0
7557  0
7558  0
7559  0
7560  0
7561  0
7562  0
7563  0
7564  0
7565  0
7566  0
7567  0
7568  0
7569  0
7570  0
7571  0
7572  0
7573  0
7574  0
7575  0
7576  0
7577  0
7578  0
7579  0
7580  0
7581  0
7582  0
7583  0
7584  0
7585  0
7586  0
7587  0
7588  0
7589  1
7590  0
7591  0
7592  1
7593  0
7594  2
7595  1
7596  0
7597  0
7598  1
7599  0
7600  0
7601  0
7602  0
7603  0
7604  0
7605  0
7606  0
7607  0
7608  0
7609  0
7610  0
7611  0
7612  0
7613  0
7614  0
7615  0
7616  0
7617  0
7618  0
7619  0
7620  0
7621  0
7622  0
7623  0
7624  0
7625  0
7626  0
7627  0
7628  0
7629  0
7630  0
7631  0
7632  0
7633  0
7634  0
7635  0
7636  0
7637  0
7638  0
7639  0
7640  0
7641  0
7642  0
7643  0
7644  0
7645  0
7646  0
7647  0
7648  0
7649  0
7650  0
7651  0
7652  0
7653  0
7654  0
7655  0
7656  0
7657  0
7658  0
7659  0
7660  0
7661  0
7662  0
7663  0
7664  0
7665  0
7666  0
7667  0
7668  0
7669  0
7670  0
7671  0
7672  0
7673  0
7674  0
7675  0
7676  0
7677  0
7678  0
7679  0
7680  0
7681  0
7682  0
7683  0
7684  0
7685  0
7686  0
7687  0
7688  0
7689  0
7690  0
7691  0
7692  0
7693  0
7694  0
7695  0
7696  0
7697  0
7698  0
7699  0
7700  0
7701  0
7702  0
7703  0
7704  0
7705  0
7706  0
7707  0
7708  0
7709  0
7710  0
7711  0
7712  0
7713  0
7714  0
7715  0
7716  0
7717  0
7718  0
7719  0
7720  0
7721  0
7722  0
7723  0
7724  0
7725  0
7726  0
7727  0
7728  0
7729  0
7730  0
7731  0
7732  0
7733  0
7734  0
7735  0
7736  0
7737  0
7738  0
7739  0
7740  0
7741  0
7742  0
7743  0
7744  0
7745  0
7746  0
7747  0
7748  0
7749  0
7750  0
7751  0
7752  0
7753  0
7754  0
7755  0
7756  0
7757  0
7758  0
7759  0
7760  0
7761  0
7762  0
7763  0
7764  0
7765  0
7766  0
7767  0
7768  0
7769  0
7770  0
7771  0
7772  0
7773  0
7774  0
7775  0
7776  0
7777  0
7778  0
7779  0
7780  0
7781  0
7782  0
7783  0
7784  0
7785  0
7786  0
7787  0
7788  0
7789  0
7790  0
7791  0
7792  0
7793  0
7794  0
7795  0
7796  0
7797  0
7798  0
7799  0
7800  0
7801  0
7802  0
7803  0
7804  0
7805  0
7806  0
7807  0
7808  0
7809  0
7810  0
7811  0
7812  0
7813  0
7814  0
7815  0
7816  0
7817  0
7818  0
7819  0
7820  0
7821  0
7822  0
7823  0
7824  0
7825  0
7826  0
7827  0
7828  0
7829  0
7830  0
7831  0
7832  0
7833  0
7834  0
7835  0
7836  0
7837  0
7838  0
7839  0
7840  0
7841  0
7842  0
7843  0
7844  0
7845  0
7846  0
7847  0
7848  0
7849  0
7850  0
7851  0
7852  0
7853  0
7854  0
7855  0
7856  0
7857  0
7858  0
7859  0
7860  0
7861  0
7862  0
7863  0
7864  0
7865  0
7866  0
7867  0
7868  0
7869  0
7870  0
7871  0
7872  0
7873  0
7874  0
7875  0
7876  0
7877  0
7878  0
7879  0
7880  0
7881  0
7882  0
7883  0
7884  0
7885  0
7886  0
7887  0
7888  0
7889  0
7890  0
7891  0
7892  0
7893  0
7894  0
7895  0
7896  0
7897  0
7898  0
7899  0
7900  0
7901  0
7902  0
7903  0
7904  0
7905  0
7906  0
7907  0
7908  0
7909  0
7910  0
7911  0
7912  0
7913  0
7914  0
7915  0
7916  0
7917  0
7918  0
7919  1
7920  1
7921  0
7922  2
7923  0
7924  2
7925  1
7926  0
7927  1
7928  3
7929  0
7930  0
7931  1
7932  0
7933  1
7934  1
7935  3
7936  0
7937  0
7938  0
7939  0
7940  0
7941  1
7942  0
7943  0
7944  0
7945  0
7946  0
7947  0
7948  0
7949  0
7950  0
7951  0
7952  0
7953  0
7954  0
7955  0
7956  0
7957  0
7958  0
7959  0
7960  0
7961  0
7962  0
7963  0
7964  0
7965  0
7966  0
7967  0
7968  0
7969  0
7970  0
7971  0
7972  0
7973  0
7974  0
7975  0
7976  0
7977  0
7978  0
7979  0
7980  0
7981  0
7982  0
7983  0
7984  0
7985  0
7986  0
7987  0
7988  1
7989  0
7990  0
7991  0
7992  0
7993  0
7994  0
7995  0
7996  0
7997  0
7998  0
7999  0
8000  0
8001  0
8002  0
8003  0
8004  0
8005  0
8006  0
8007  0
8008  0
8009  0
8010  0
8011  0
8012  0
8013  0
8014  0
8015  0
8016  0
8017  0
8018  0
8019  0
8020  0
8021  0
8022  0
8023  0
8024  0
8025  0
8026  0
8027  0
8028  0
8029  0
8030  0
8031  0
8032  0
8033  0
8034  0
8035  0
8036  0
8037  0
8038  0
8039  0
8040  0
8041  0
8042  0
8043  0
8044  0
8045  0
8046  0
8047  0
8048  0
8049  0
8050  0
8051  0
8052  0
8053  0
8054  0
8055  0
8056  0
8057  0
8058  0
8059  0
8060  0
8061  0
8062  0
8063  0
8064  0
8065  0
8066  0
8067  0
8068  0
8069  0
8070  0
8071  0
8072  0
8073  0
8074  0
8075  0
8076  0
8077  0
8078  0
8079  0
8080  0
8081  0
8082  0
8083  0
8084  0
8085  0
8086  0
8087  0
8088  0
8089  0
8090  0
8091  0
8092  0
8093  0
8094  0
8095  0
8096  0
8097  0
8098  0
8099  0
8100  0
8101  0
8102  0
8103  0
8104  0
8105  0
8106  0
8107  0
8108  0
8109  0
8110  0
8111  0
8112  0
8113  0
8114  0
8115  0
8116  0
8117  0
8118  0
8119  0
8120  0
8121  0
8122  0
8123  0
8124  0
8125  0
8126  0
8127  0
8128  0
8129  0
8130  0
8131  0
8132  0
8133  0
8134  0
8135  0
8136  0
8137  0
8138  0
8139  0
8140  0
8141  0
8142  0
8143  0
8144  0
8145  0
8146  0
8147  0
8148  0
8149  0
8150  0
8151  0
8152  0
8153  0
8154  0
8155  0
8156  0
8157  0
8158  0
8159  0
8160  0
8161  0
8162  0
8163  0
8164  0
8165  0
8166  0
8167  0
8168  0
8169  0
8170  0
8171  0
8172  0
8173  0
8174  0
8175  0
8176  0
8177  0
8178  0
8179  0
8180  0
8181  0
8182  0
8183  0
8184  0
8185  0
8186  0
8187  0
8188  0
8189  0
8190  0
8191  0
